Table IV
The resulting deperturbed (diabatic) potential energy curves of the singlet A1Sigma+ 
state U_A(r) and triplet b3Pi(Omega=0,1,2) sub-states U_b0(r), U_b1(r), U_b2(r) 
as well as spin-orbit splitting A_01(r), A_12(r) and V_Ab0(r) functions.
Energies - in cm-1, internuclear distance in Angstroms.
=======================================================================================
     r       U_A       U_b0       U_b1        U_b2        A_01        A_12      V_Ab0
---------------------------------------------------------------------------------------
  Angstroms                                         cm-1
=======================================================================================
  2.300607  33839.671  32544.748  32714.188  32865.567    169.440    151.379    166.017
  2.308939  33475.503  31752.009  31921.224  32072.404    169.216    151.180    165.734
  2.317154  33122.979  31007.461  31176.446  31327.424    168.985    150.978    165.464
  2.325256  32781.529  30307.170  30475.920  30626.694    168.750    150.774    165.207
  2.333250  32450.618  29647.592  29816.102  29966.669    168.510    150.567    164.962
  2.341138  32129.744  29025.530  29193.795  29344.154    168.265    150.359    164.727
  2.348924  31818.439  28438.093  28606.110  28756.259    168.016    150.150    164.502
  2.356611  31516.263  27882.663  28050.427  28200.365    167.764    149.938    164.286
  2.364201  31222.801  27356.863  27524.371  27674.097    167.508    149.726    164.078
  2.371698  30937.666  26858.534  27025.783  27175.295    167.249    149.512    163.878
  2.379105  30660.490  26385.707  26552.694  26701.992    166.988    149.298    163.686
  2.386423  30390.929  25936.589  26103.312  26252.394    166.723    149.082    163.500
  2.393655  30128.658  25509.539  25675.996  25824.862    166.456    148.866    163.321
  2.400803  29873.371  25103.059  25269.247  25417.896    166.188    148.650    163.147
  2.407871  29624.778  24715.773  24881.690  25030.123    165.917    148.433    162.979
  2.414859  29382.604  24346.421  24512.065  24660.280    165.644    148.215    162.816
  2.421771  29146.593  23993.841  24159.211  24307.209    165.370    147.997    162.657
  2.428607  28916.497  23656.969  23822.063  23969.843    165.095    147.780    162.503
  2.435371  28692.086  23334.820  23499.638  23647.200    164.818    147.562    162.352
  2.442063  28473.139  23026.488  23191.028  23338.372    164.540    147.344    162.205
  2.448686  28259.447  22731.135  22895.397  23042.522    164.261    147.126    162.062
  2.455241  28050.813  22447.986  22611.968  22758.876    163.982    146.908    161.922
  2.461730  27847.048  22176.324  22340.025  22486.716    163.702    146.691    161.784
  2.468154  27647.973  21915.482  22078.903  22225.377    163.421    146.473    161.650
  2.474515  27453.418  21664.845  21827.985  21974.241    163.140    146.256    161.517
  2.480815  27263.221  21423.838  21586.696  21732.736    162.858    146.040    161.387
  2.487055  27077.228  21191.929  21354.505  21500.329    162.576    145.824    161.260
  2.493235  26895.291  20968.620  21130.914  21276.522    162.294    145.608    161.134
  2.499359  26717.272  20753.449  20915.461  21060.853    162.012    145.393    161.009
  2.505426  26543.036  20545.984  20707.714  20852.892    161.730    145.178    160.887
  2.511438  26372.455  20345.822  20507.270  20652.234    161.447    144.964    160.766
  2.517396  26205.409  20152.588  20313.753  20458.503    161.165    144.750    160.646
  2.523302  26041.779  19965.927  20126.811  20271.348    160.883    144.538    160.528
  2.529156  25881.456  19785.512  19946.114  20090.439    160.602    144.325    160.411
  2.534960  25724.332  19611.032  19771.352  19915.466    160.320    144.114    160.294
  2.540714  25570.307  19442.198  19602.238  19746.140    160.039    143.903    160.179
  2.546420  25419.281  19278.739  19438.497  19582.190    159.759    143.693    160.065
  2.552078  25271.163  19120.398  19279.877  19423.360    159.478    143.483    159.951
  2.557690  25125.862  18966.936  19126.135  19269.409    159.199    143.275    159.838
  2.563256  24983.293  18818.128  18977.047  19120.113    158.919    143.067    159.725
  2.568778  24843.373  18673.759  18832.400  18975.259    158.641    142.859    159.613
  2.574256  24706.024  18533.631  18691.994  18834.647    158.362    142.653    159.502
  2.579691  24571.170  18397.554  18555.639  18698.087    158.085    142.448    159.391
  2.585083  24438.737  18265.351  18423.159  18565.402    157.808    142.243    159.280
  2.590435  24308.657  18136.853  18294.385  18436.425    157.532    142.039    159.170
  2.595746  24180.861  18011.902  18169.159  18310.995    157.256    141.836    159.060
  2.601016  24055.285  17890.348  18047.329  18188.963    156.982    141.634    158.950
  2.606248  23931.867  17772.048  17928.755  18070.188    156.708    141.433    158.840
  2.611442  23810.548  17656.868  17813.302  17954.535    156.435    141.232    158.730
  2.616597  23691.269  17544.681  17700.843  17841.876    156.162    141.033    158.621
  2.621716  23573.976  17435.367  17591.258  17732.092    155.890    140.834    158.511
  2.626798  23458.614  17328.812  17484.431  17625.068    155.620    140.636    158.402
  2.631845  23345.132  17224.906  17380.256  17520.695    155.350    140.439    158.292
  2.636856  23233.482  17123.547  17278.628  17418.872    155.081    140.243    158.183
  2.641832  23123.614  17024.638  17179.451  17319.499    154.812    140.048    158.073
  2.646775  23015.483  16928.086  17082.631  17222.485    154.545    139.854    157.963
  2.651684  22909.044  16833.801  16988.080  17127.741    154.279    139.661    157.853
  2.656561  22804.255  16741.701  16895.714  17035.183    154.013    139.468    157.743
  2.661405  22701.074  16651.706  16805.454  16944.731    153.749    139.277    157.633
  2.666217  22599.460  16563.738  16717.223  16856.309    153.485    139.086    157.522
  2.670998  22499.376  16477.727  16630.949  16769.846    153.222    138.896    157.412
  2.675749  22400.783  16393.603  16546.563  16685.271    152.960    138.708    157.301
  2.680469  22303.645  16311.300  16463.999  16602.519    152.699    138.520    157.190
  2.685159  22207.929  16230.755  16383.194  16521.527    152.439    138.333    157.079
  2.689820  22113.599  16151.908  16304.088  16442.235    152.181    138.146    156.967
  2.694452  22020.623  16074.702  16226.625  16364.586    151.923    137.961    156.855
  2.699055  21928.969  15999.083  16150.748  16288.525    151.665    137.777    156.743
  2.703631  21838.607  15924.998  16076.407  16214.001    151.409    137.593    156.631
  2.708179  21749.507  15852.397  16003.551  16140.962    151.154    137.411    156.518
  2.712700  21661.641  15781.232  15932.132  16069.361    150.900    137.229    156.405
  2.717194  21574.979  15711.458  15862.105  15999.153    150.647    137.048    156.292
  2.721661  21489.497  15643.031  15793.426  15930.294    150.395    136.868    156.178
  2.726103  21405.166  15575.909  15726.053  15862.742    150.144    136.689    156.064
  2.730519  21321.963  15510.051  15659.945  15796.456    149.894    136.511    155.950
  2.734910  21239.862  15445.420  15595.065  15731.398    149.644    136.333    155.835
  2.739276  21158.839  15381.978  15531.375  15667.532    149.396    136.157    155.720
  2.743618  21078.871  15319.691  15468.840  15604.821    149.149    135.981    155.605
  2.747935  20999.937  15258.523  15407.425  15543.232    148.903    135.807    155.489
  2.752229  20922.013  15198.442  15347.100  15482.732    148.657    135.633    155.373
  2.756499  20845.080  15139.418  15287.831  15423.291    148.413    135.460    155.257
  2.760746  20769.116  15081.420  15229.589  15364.877    148.170    135.287    155.141
  2.764970  20694.101  15024.418  15172.346  15307.462    147.927    135.116    155.024
  2.769171  20620.016  14968.387  15116.072  15251.018    147.686    134.945    154.906
  2.773350  20546.842  14913.297  15060.743  15195.518    147.445    134.776    154.789
  2.777507  20474.561  14859.125  15006.331  15140.937    147.206    134.607    154.671
  2.781643  20403.155  14805.844  14952.812  15087.250    146.967    134.439    154.552
  2.785757  20332.606  14753.432  14900.162  15034.434    146.730    134.271    154.434
  2.789851  20262.898  14701.866  14848.359  14982.464    146.493    134.105    154.315
  2.793923  20194.015  14651.123  14797.380  14931.319    146.258    133.939    154.195
  2.797975  20125.940  14601.182  14747.205  14880.979    146.023    133.774    154.076
  2.802007  20058.658  14552.022  14697.811  14831.422    145.789    133.610    153.956
  2.806018  19992.154  14503.624  14649.181  14782.628    145.557    133.447    153.835
  2.810010  19926.413  14455.969  14601.294  14734.578    145.325    133.284    153.715
  2.813982  19861.420  14409.038  14554.132  14687.255    145.094    133.123    153.594
  2.817936  19797.163  14362.814  14507.678  14640.640    144.864    132.962    153.472
  2.821870  19733.627  14317.279  14461.915  14594.716    144.635    132.802    153.351
  2.825785  19670.799  14272.418  14416.825  14549.467    144.407    132.642    153.229
  2.829682  19608.666  14228.213  14372.393  14504.876    144.180    132.484    153.107
  2.833560  19547.215  14184.649  14328.603  14460.929    143.954    132.326    152.984
  2.837420  19486.435  14141.712  14285.440  14417.609    143.728    132.169    152.861
  2.841263  19426.313  14099.387  14242.891  14374.903    143.504    132.012    152.738
  2.845088  19366.838  14057.660  14200.941  14332.798    143.281    131.857    152.615
  2.848895  19307.999  14016.518  14159.576  14291.278    143.058    131.702    152.491
  2.852685  19249.783  13975.947  14118.784  14250.332    142.836    131.548    152.367
  2.856458  19192.181  13935.936  14078.551  14209.946    142.616    131.394    152.242
  2.860214  19135.182  13896.471  14038.867  14170.108    142.396    131.242    152.118
  2.863954  19078.776  13857.540  13999.717  14130.807    142.177    131.090    151.993
  2.867677  19022.952  13819.134  13961.092  14092.031    141.959    130.938    151.868
  2.871384  18967.702  13781.239  13922.981  14053.769    141.742    130.788    151.742
  2.875075  18913.014  13743.846  13885.371  14016.009    141.525    130.638    151.617
  2.878750  18858.880  13706.944  13848.254  13978.743    141.310    130.489    151.491
  2.882409  18805.291  13670.522  13811.618  13941.958    141.095    130.341    151.365
  2.886052  18752.238  13634.572  13775.454  13905.647    140.882    130.193    151.238
  2.889681  18699.712  13599.083  13739.752  13869.798    140.669    130.046    151.111
  2.893294  18647.704  13564.047  13704.504  13834.403    140.457    129.899    150.984
  2.896892  18596.207  13529.454  13669.699  13799.453    140.246    129.754    150.857
  2.900475  18545.211  13495.295  13635.330  13764.939    140.035    129.609    150.730
  2.904043  18494.710  13461.563  13601.388  13730.853    139.826    129.464    150.602
  2.907597  18444.696  13428.248  13567.865  13697.186    139.617    129.321    150.474
  2.911137  18395.160  13395.343  13534.752  13663.930    139.409    129.178    150.346
  2.914662  18346.096  13362.841  13502.043  13631.078    139.202    129.035    150.218
  2.918174  18297.495  13330.733  13469.729  13598.622    138.996    128.894    150.090
  2.921671  18249.352  13299.012  13437.803  13566.555    138.791    128.753    149.961
  2.925155  18201.659  13267.671  13406.257  13534.870    138.586    128.612    149.832
  2.928625  18154.408  13236.704  13375.086  13503.559    138.383    128.472    149.703
  2.932081  18107.595  13206.103  13344.282  13472.616    138.180    128.333    149.574
  2.935524  18061.211  13175.861  13313.839  13442.034    137.977    128.195    149.444
  2.938954  18015.252  13145.974  13283.750  13411.807    137.776    128.057    149.315
  2.942371  17969.709  13116.433  13254.009  13381.929    137.576    127.920    149.185
  2.945775  17924.578  13087.234  13224.610  13352.393    137.376    127.783    149.055
  2.949166  17879.852  13058.370  13195.547  13323.194    137.177    127.647    148.925
  2.952544  17835.526  13029.836  13166.814  13294.326    136.979    127.512    148.794
  2.955910  17791.593  13001.625  13138.407  13265.783    136.781    127.377    148.664
  2.959264  17748.049  12973.733  13110.318  13237.561    136.585    127.243    148.533
  2.962605  17704.887  12946.155  13082.543  13209.652    136.389    127.109    148.402
  2.965934  17662.102  12918.884  13055.077  13182.053    136.193    126.976    148.272
  2.969251  17619.689  12891.916  13027.915  13154.759    135.999    126.844    148.140
  2.972556  17577.643  12865.246  13001.052  13127.763    135.805    126.712    148.009
  2.975849  17535.958  12838.870  12974.482  13101.063    135.613    126.580    147.878
  2.979131  17494.630  12812.781  12948.202  13074.652    135.420    126.450    147.747
  2.982401  17453.654  12786.977  12922.206  13048.526    135.229    126.320    147.615
  2.985659  17413.024  12761.452  12896.491  13022.681    135.038    126.190    147.483
  2.988906  17372.737  12736.203  12871.051  12997.112    134.848    126.061    147.352
  2.992142  17332.788  12711.224  12845.883  12971.816    134.659    125.933    147.220
  2.995367  17293.171  12686.512  12820.982  12946.787    134.470    125.805    147.088
  2.998581  17253.883  12662.062  12796.345  12922.022    134.283    125.678    146.956
  3.001783  17214.920  12637.871  12771.966  12897.517    134.095    125.551    146.823
  3.004975  17176.276  12613.935  12747.844  12873.268    133.909    125.425    146.691
  3.008156  17137.949  12590.249  12723.973  12849.272    133.723    125.299    146.559
  3.011327  17099.933  12566.811  12700.350  12825.523    133.538    125.174    146.426
  3.014487  17062.225  12543.617  12676.971  12802.020    133.354    125.049    146.294
  3.017636  17024.821  12520.662  12653.833  12778.758    133.170    124.925    146.161
  3.020776  16987.716  12497.945  12630.932  12755.733    132.987    124.802    146.028
  3.023905  16950.908  12475.460  12608.265  12732.944    132.805    124.679    145.896
  3.027023  16914.392  12453.205  12585.829  12710.385    132.623    124.556    145.763
  3.030132  16878.165  12431.177  12563.620  12688.054    132.443    124.434    145.630
  3.033231  16842.223  12409.373  12541.635  12665.947    132.262    124.313    145.497
  3.036320  16806.562  12387.788  12519.871  12644.063    132.083    124.192    145.364
  3.039399  16771.180  12366.421  12498.325  12622.396    131.904    124.071    145.231
  3.042469  16736.071  12345.269  12476.994  12600.946    131.725    123.951    145.098
  3.045528  16701.235  12324.328  12455.875  12579.707    131.548    123.832    144.965
  3.048579  16666.666  12303.595  12434.966  12558.679    131.371    123.713    144.832
  3.051620  16632.362  12283.068  12414.263  12537.857    131.194    123.595    144.699
  3.054651  16598.319  12262.744  12393.763  12517.240    131.019    123.477    144.565
  3.057673  16564.535  12242.621  12373.464  12496.824    130.844    123.359    144.432
  3.060686  16531.006  12222.695  12353.364  12476.606    130.669    123.242    144.299
  3.063690  16497.729  12202.964  12333.460  12456.585    130.495    123.126    144.166
  3.066685  16464.702  12183.426  12313.748  12436.758    130.322    123.010    144.032
  3.069671  16431.921  12164.078  12294.228  12417.122    130.150    122.894    143.899
  3.072648  16399.384  12144.918  12274.895  12397.675    129.978    122.779    143.766
  3.075616  16367.087  12125.943  12255.749  12378.414    129.806    122.665    143.632
  3.078576  16335.028  12107.151  12236.786  12359.337    129.636    122.550    143.499
  3.081526  16303.205  12088.539  12218.005  12340.441    129.465    122.437    143.366
  3.084469  16271.613  12070.106  12199.402  12321.726    129.296    122.324    143.232
  3.087402  16240.252  12051.849  12180.976  12303.187    129.127    122.211    143.099
  3.090328  16209.118  12033.766  12162.725  12284.824    128.959    122.098    142.966
  3.093244  16178.209  12015.855  12144.646  12266.633    128.791    121.987    142.832
  3.096153  16147.522  11998.114  12126.738  12248.613    128.624    121.875    142.699
  3.099053  16117.054  11980.541  12108.998  12230.762    128.457    121.764    142.566
  3.101945  16086.804  11963.133  12091.424  12213.078    128.291    121.654    142.433
  3.104829  16056.769  11945.889  12074.015  12195.559    128.126    121.544    142.300
  3.107706  16026.946  11928.807  12056.768  12178.202    127.961    121.434    142.166
  3.110574  15997.333  11911.885  12039.681  12161.006    127.797    121.325    142.033
  3.113434  15967.929  11895.120  12022.753  12143.970    127.633    121.216    141.900
  3.116286  15938.729  11878.512  12005.982  12127.090    127.470    121.108    141.767
  3.119131  15909.734  11862.059  11989.366  12110.366    127.307    121.000    141.634
  3.121967  15880.939  11845.758  11972.903  12093.796    127.145    120.893    141.501
  3.124797  15852.344  11829.607  11956.591  12077.377    126.984    120.786    141.368
  3.127618  15823.946  11813.606  11940.429  12061.108    126.823    120.679    141.235
  3.130432  15795.743  11797.753  11924.415  12044.988    126.663    120.573    141.102
  3.133239  15767.732  11782.045  11908.548  12029.015    126.503    120.467    140.970
  3.136038  15739.912  11766.481  11892.825  12013.186    126.344    120.362    140.837
  3.138830  15712.282  11751.060  11877.245  11997.501    126.185    120.257    140.704
  3.141614  15684.838  11735.780  11861.806  11981.958    126.027    120.152    140.572
  3.144391  15657.579  11720.639  11846.508  11966.556    125.869    120.048    140.439
  3.147161  15630.503  11705.636  11831.348  11951.292    125.712    119.944    140.307
  3.149924  15603.608  11690.769  11816.325  11936.165    125.555    119.841    140.174
  3.152680  15576.893  11676.038  11801.437  11921.175    125.399    119.738    140.042
  3.155429  15550.356  11661.440  11786.683  11906.319    125.244    119.635    139.910
  3.158171  15523.994  11646.973  11772.062  11891.595    125.089    119.533    139.778
  3.160906  15497.806  11632.638  11757.572  11877.003    124.934    119.431    139.645
  3.163634  15471.790  11618.431  11743.212  11862.541    124.780    119.330    139.513
  3.166355  15445.945  11604.353  11728.980  11848.208    124.627    119.229    139.382
  3.169070  15420.268  11590.401  11714.875  11834.003    124.474    119.128    139.250
  3.171778  15394.759  11576.574  11700.895  11819.923    124.321    119.028    139.118
  3.174479  15369.416  11562.871  11687.040  11805.969    124.169    118.928    138.986
  3.177174  15344.236  11549.291  11673.309  11792.137    124.018    118.829    138.855
  3.179862  15319.219  11535.832  11659.699  11778.428    123.867    118.730    138.723
  3.182543  15294.362  11522.493  11646.209  11764.840    123.716    118.631    138.592
  3.185218  15269.664  11509.273  11632.839  11751.372    123.566    118.532    138.461
  3.187887  15245.125  11496.171  11619.587  11738.022    123.417    118.434    138.329
  3.190549  15220.741  11483.185  11606.452  11724.789    123.268    118.337    138.198
  3.193205  15196.512  11470.314  11593.433  11711.673    123.119    118.240    138.067
  3.195855  15172.436  11457.558  11580.529  11698.671    122.971    118.143    137.936
  3.198498  15148.513  11444.914  11567.738  11685.784    122.823    118.046    137.806
  3.201136  15124.739  11432.383  11555.059  11673.009    122.676    117.950    137.675
  3.203767  15101.114  11419.962  11542.491  11660.345    122.530    117.854    137.544
  3.206392  15077.637  11407.651  11530.034  11647.793    122.383    117.759    137.414
  3.209011  15054.306  11395.448  11517.686  11635.349    122.238    117.664    137.284
  3.211624  15031.120  11383.353  11505.446  11623.014    122.092    117.569    137.154
  3.214231  15008.077  11371.365  11493.312  11610.787    121.948    117.474    137.023
  3.216832  14985.177  11359.482  11481.285  11598.665    121.803    117.380    136.894
  3.219428  14962.417  11347.703  11469.363  11586.649    121.659    117.286    136.764
  3.222017  14939.797  11336.028  11457.544  11574.737    121.516    117.193    136.634
  3.224601  14917.315  11324.456  11445.829  11562.929    121.373    117.100    136.504
  3.227179  14894.970  11312.985  11434.215  11551.222    121.230    117.007    136.375
  3.229751  14872.762  11301.614  11422.702  11539.617    121.088    116.915    136.246
  3.232317  14850.687  11290.343  11411.290  11528.113    120.947    116.823    136.116
  3.234878  14828.746  11279.171  11399.976  11516.708    120.806    116.731    135.987
  3.237434  14806.938  11268.096  11388.761  11505.401    120.665    116.640    135.859
  3.239984  14785.260  11257.119  11377.643  11494.192    120.524    116.549    135.730
  3.242528  14763.713  11246.237  11366.622  11483.080    120.385    116.458    135.601
  3.245067  14742.294  11235.450  11355.695  11472.063    120.245    116.368    135.473
  3.247600  14721.003  11224.758  11344.864  11461.141    120.106    116.278    135.344
  3.250128  14699.838  11214.159  11334.126  11450.314    119.967    116.188    135.216
  3.252650  14678.799  11203.652  11323.481  11439.580    119.829    116.098    135.088
  3.255168  14657.884  11193.237  11312.928  11428.938    119.692    116.009    134.960
  3.257680  14637.092  11182.913  11302.467  11418.387    119.554    115.920    134.832
  3.260186  14616.423  11172.678  11292.096  11407.927    119.417    115.832    134.705
  3.262688  14595.875  11162.533  11281.814  11397.558    119.281    115.744    134.577
  3.265184  14575.447  11152.476  11271.621  11387.277    119.145    115.656    134.450
  3.267675  14555.138  11142.507  11261.516  11377.085    119.009    115.568    134.323
  3.270162  14534.947  11132.625  11251.499  11366.980    118.874    115.481    134.196
  3.272643  14514.873  11122.828  11241.567  11356.962    118.739    115.394    134.069
  3.275118  14494.916  11113.117  11231.722  11347.029    118.605    115.308    133.942
  3.277589  14475.073  11103.491  11221.961  11337.183    118.470    115.221    133.815
  3.280055  14455.345  11093.948  11212.285  11327.420    118.337    115.135    133.689
  3.282516  14435.730  11084.489  11202.692  11317.742    118.204    115.049    133.563
  3.284972  14416.228  11075.111  11193.182  11308.146    118.071    114.964    133.437
  3.287424  14396.837  11065.816  11183.754  11298.633    117.938    114.879    133.311
  3.289870  14377.556  11056.601  11174.407  11289.201    117.806    114.794    133.185
  3.292312  14358.385  11047.466  11165.141  11279.851    117.675    114.710    133.059
  3.294748  14339.323  11038.411  11155.955  11270.580    117.543    114.625    132.934
  3.297181  14320.368  11029.435  11146.848  11261.389    117.412    114.541    132.809
  3.299608  14301.521  11020.538  11137.820  11252.277    117.282    114.458    132.684
  3.302030  14282.779  11011.717  11128.869  11243.243    117.152    114.374    132.559
  3.304448  14264.143  11002.974  11119.996  11234.287    117.022    114.291    132.434
  3.306862  14245.611  10994.307  11111.199  11225.408    116.893    114.209    132.309
  3.309271  14227.183  10985.715  11102.479  11216.605    116.764    114.126    132.185
  3.311675  14208.857  10977.198  11093.834  11207.877    116.635    114.044    132.061
  3.314074  14190.633  10968.756  11085.263  11199.225    116.507    113.962    131.937
  3.316470  14172.511  10960.388  11076.767  11190.647    116.379    113.880    131.813
  3.318860  14154.489  10952.092  11068.344  11182.143    116.252    113.799    131.689
  3.321246  14136.566  10943.869  11059.994  11173.712    116.125    113.718    131.565
  3.323628  14118.742  10935.718  11051.716  11165.353    115.998    113.637    131.442
  3.326006  14101.016  10927.639  11043.510  11157.066    115.872    113.556    131.319
  3.328379  14083.387  10919.630  11035.375  11148.851    115.746    113.476    131.196
  3.330747  14065.855  10911.691  11027.311  11140.707    115.620    113.396    131.073
  3.333112  14048.419  10903.822  11019.317  11132.633    115.495    113.316    130.950
  3.335472  14031.077  10896.022  11011.392  11124.628    115.370    113.237    130.828
  3.337827  14013.830  10888.290  11003.536  11116.693    115.245    113.158    130.706
  3.340179  13996.676  10880.627  10995.748  11108.826    115.121    113.079    130.584
  3.342526  13979.615  10873.031  10988.028  11101.028    114.997    113.000    130.462
  3.344870  13962.647  10865.501  10980.375  11093.296    114.874    112.922    130.340
  3.347209  13945.769  10858.038  10972.789  11085.632    114.751    112.843    130.218
  3.349544  13928.983  10850.641  10965.269  11078.034    114.628    112.766    130.097
  3.351874  13912.286  10843.309  10957.814  11070.502    114.505    112.688    129.976
  3.354201  13895.679  10836.042  10950.425  11063.036    114.383    112.611    129.855
  3.356524  13879.161  10828.839  10943.100  11055.634    114.261    112.533    129.734
  3.358843  13862.731  10821.700  10935.840  11048.297    114.140    112.457    129.613
  3.361157  13846.388  10814.624  10928.643  11041.023    114.019    112.380    129.493
  3.363468  13830.132  10807.611  10921.509  11033.813    113.898    112.304    129.373
  3.365775  13813.962  10800.660  10914.438  11026.666    113.778    112.228    129.253
  3.368077  13797.878  10793.771  10907.429  11019.581    113.658    112.152    129.133
  3.370376  13781.878  10786.944  10900.482  11012.558    113.538    112.076    129.013
  3.372671  13765.963  10780.177  10893.595  11005.596    113.419    112.001    128.894
  3.374963  13750.132  10773.470  10886.770  10998.696    113.300    111.926    128.775
  3.377250  13734.383  10766.824  10880.005  10991.856    113.181    111.851    128.655
  3.379534  13718.717  10760.237  10873.299  10985.076    113.062    111.776    128.537
  3.381813  13703.133  10753.709  10866.653  10978.355    112.944    111.702    128.418
  3.384089  13687.630  10747.239  10860.066  10971.694    112.827    111.628    128.299
  3.386362  13672.208  10740.828  10853.537  10965.092    112.709    111.554    128.181
  3.388630  13656.865  10734.475  10847.067  10958.547    112.592    111.481    128.063
  3.390895  13641.603  10728.178  10840.654  10952.061    112.475    111.407    127.945
  3.393156  13626.419  10721.939  10834.298  10945.632    112.359    111.334    127.827
  3.395414  13611.314  10715.756  10827.998  10939.260    112.243    111.261    127.710
  3.397667  13596.287  10709.629  10821.756  10932.944    112.127    111.189    127.593
  3.399918  13581.336  10703.557  10815.569  10926.685    112.011    111.116    127.476
  3.402164  13566.463  10697.541  10809.437  10920.481    111.896    111.044    127.359
  3.404408  13551.666  10691.579  10803.361  10914.333    111.781    110.972    127.242
  3.406647  13536.945  10685.672  10797.339  10908.239    111.667    110.900    127.125
  3.408883  13522.299  10679.819  10791.371  10902.200    111.552    110.829    127.009
  3.411116  13507.727  10674.019  10785.458  10896.215    111.439    110.758    126.893
  3.413345  13493.230  10668.273  10779.598  10890.284    111.325    110.687    126.777
  3.415570  13478.806  10662.579  10773.790  10884.406    111.212    110.616    126.662
  3.417793  13464.456  10656.938  10768.036  10878.581    111.099    110.545    126.546
  3.420011  13450.178  10651.348  10762.334  10872.809    110.986    110.475    126.431
  3.422227  13435.972  10645.811  10756.684  10867.089    110.873    110.405    126.316
  3.424439  13421.838  10640.324  10751.086  10861.421    110.761    110.335    126.201
  3.426647  13407.775  10634.889  10745.538  10855.804    110.649    110.265    126.086
  3.428852  13393.782  10629.504  10740.042  10850.238    110.538    110.196    125.972
  3.431054  13379.860  10624.169  10734.596  10844.723    110.427    110.127    125.857
  3.433253  13366.008  10618.884  10729.200  10839.258    110.316    110.058    125.743
  3.435448  13352.225  10613.649  10723.854  10833.843    110.205    109.989    125.630
  3.437641  13338.511  10608.463  10718.557  10828.478    110.095    109.920    125.516
  3.439829  13324.865  10603.325  10713.310  10823.162    109.985    109.852    125.402
  3.442015  13311.287  10598.236  10708.111  10817.895    109.875    109.784    125.289
  3.444197  13297.776  10593.195  10702.961  10812.677    109.765    109.716    125.176
  3.446377  13284.332  10588.202  10697.858  10807.507    109.656    109.649    125.063
  3.448553  13270.955  10583.256  10692.804  10802.385    109.547    109.581    124.951
  3.450726  13257.644  10578.357  10687.796  10797.310    109.439    109.514    124.838
  3.452895  13244.399  10573.506  10682.836  10792.283    109.330    109.447    124.726
  3.455062  13231.219  10568.700  10677.923  10787.303    109.222    109.380    124.614
  3.457226  13218.104  10563.941  10673.055  10782.369    109.115    109.313    124.503
  3.459386  13205.053  10559.227  10668.234  10777.482    109.007    109.247    124.391
  3.461543  13192.066  10554.559  10663.459  10772.640    108.900    109.181    124.280
  3.463698  13179.143  10549.936  10658.730  10767.844    108.793    109.115    124.169
  3.465849  13166.282  10545.358  10654.045  10763.094    108.687    109.049    124.058
  3.467997  13153.485  10540.825  10649.405  10758.389    108.580    108.984    123.947
  3.470143  13140.750  10536.336  10644.810  10753.728    108.474    108.918    123.836
  3.472285  13128.077  10531.891  10640.259  10749.112    108.368    108.853    123.726
  3.474424  13115.466  10527.489  10635.752  10744.540    108.263    108.788    123.616
  3.476561  13102.915  10523.131  10631.289  10740.012    108.157    108.724    123.506
  3.478694  13090.426  10518.816  10626.869  10735.528    108.053    108.659    123.397
  3.480825  13077.997  10514.544  10622.492  10731.086    107.948    108.595    123.287
  3.482953  13065.627  10510.314  10618.157  10726.688    107.843    108.531    123.178
  3.485077  13053.318  10506.127  10613.866  10722.332    107.739    108.467    123.069
  3.487199  13041.068  10501.981  10609.616  10718.019    107.635    108.403    122.960
  3.489318  13028.876  10497.877  10605.409  10713.748    107.532    108.340    122.851
  3.491435  13016.743  10493.815  10601.243  10709.519    107.428    108.276    122.743
  3.493548  13004.669  10489.793  10597.118  10705.331    107.325    108.213    122.635
  3.495659  12992.652  10485.813  10593.035  10701.185    107.222    108.150    122.527
  3.497767  12980.692  10481.873  10588.992  10697.080    107.120    108.088    122.419
  3.499872  12968.790  10477.973  10584.990  10693.015    107.017    108.025    122.312
  3.501974  12956.944  10474.113  10581.029  10688.991    106.915    107.963    122.204
  3.504074  12945.155  10470.293  10577.107  10685.008    106.814    107.901    122.097
  3.506171  12933.422  10466.513  10573.225  10681.064    106.712    107.839    121.990
  3.508265  12921.744  10462.772  10569.383  10677.160    106.611    107.777    121.884
  3.510356  12910.122  10459.070  10565.580  10673.295    106.510    107.715    121.777
  3.512445  12898.555  10455.407  10561.816  10669.470    106.409    107.654    121.671
  3.514531  12887.043  10451.782  10558.090  10665.683    106.308    107.593    121.565
  3.516615  12875.585  10448.195  10554.404  10661.936    106.208    107.532    121.459
  3.518696  12864.180  10444.647  10550.755  10658.226    106.108    107.471    121.353
  3.520774  12852.830  10441.136  10547.145  10654.555    106.008    107.411    121.248
  3.522850  12841.533  10437.663  10543.572  10650.922    105.909    107.350    121.143
  3.524923  12830.289  10434.227  10540.037  10647.327    105.810    107.290    121.038
  3.526993  12819.098  10430.828  10536.539  10643.769    105.711    107.230    120.933
  3.529061  12807.959  10427.466  10533.078  10640.248    105.612    107.170    120.829
  3.531126  12796.872  10424.141  10529.654  10636.765    105.513    107.111    120.724
  3.533189  12785.837  10420.852  10526.267  10633.318    105.415    107.051    120.620
  3.535249  12774.854  10417.599  10522.916  10629.908    105.317    106.992    120.516
  3.537307  12763.922  10414.382  10519.601  10626.534    105.219    106.933    120.413
  3.539362  12753.040  10411.201  10516.323  10623.196    105.122    106.874    120.309
  3.541415  12742.209  10408.055  10513.079  10619.895    105.024    106.815    120.206
  3.543466  12731.429  10404.944  10509.872  10616.628    104.927    106.757    120.103
  3.545514  12720.698  10401.869  10506.699  10613.398    104.831    106.698    120.000
  3.547559  12710.018  10398.828  10503.562  10610.202    104.734    106.640    119.897
  3.549602  12699.386  10395.822  10500.460  10607.042    104.638    106.582    119.795
  3.551643  12688.804  10392.850  10497.392  10603.916    104.542    106.524    119.693
  3.553681  12678.271  10389.912  10494.358  10600.825    104.446    106.467    119.591
  3.555717  12667.786  10387.009  10491.359  10597.768    104.350    106.409    119.489
  3.557750  12657.349  10384.139  10488.394  10594.745    104.255    106.352    119.388
  3.559781  12646.960  10381.302  10485.462  10591.757    104.160    106.295    119.286
  3.561810  12636.620  10378.499  10482.564  10588.802    104.065    106.238    119.185
  3.563836  12626.326  10375.729  10479.699  10585.880    103.970    106.181    119.084
  3.565860  12616.080  10372.992  10476.868  10582.992    103.876    106.124    118.984
  3.567882  12605.881  10370.288  10474.070  10580.138    103.781    106.068    118.883
  3.569902  12595.728  10367.616  10471.304  10577.316    103.687    106.012    118.783
  3.571919  12585.622  10364.977  10468.571  10574.527    103.594    105.956    118.683
  3.573934  12575.561  10362.370  10465.870  10571.770    103.500    105.900    118.583
  3.575946  12565.547  10359.795  10463.201  10569.046    103.407    105.844    118.483
  3.577957  12555.578  10357.251  10460.565  10566.353    103.314    105.789    118.384
  3.579965  12545.655  10354.739  10457.960  10563.693    103.221    105.733    118.285
  3.581971  12535.777  10352.259  10455.387  10561.065    103.128    105.678    118.186
  3.583974  12525.943  10349.809  10452.845  10558.468    103.036    105.623    118.087
  3.585976  12516.154  10347.391  10450.335  10555.903    102.944    105.568    117.988
  3.587975  12506.410  10345.003  10447.855  10553.369    102.852    105.514    117.890
  3.589972  12496.709  10342.647  10445.407  10550.866    102.760    105.459    117.792
  3.591967  12487.053  10340.320  10442.989  10548.394    102.669    105.405    117.694
  3.593960  12477.439  10338.024  10440.601  10545.952    102.577    105.351    117.596
  3.595951  12467.870  10335.758  10438.244  10543.541    102.486    105.297    117.499
  3.597939  12458.343  10333.522  10435.918  10541.160    102.396    105.243    117.402
  3.599926  12448.859  10331.316  10433.621  10538.810    102.305    105.189    117.305
  3.601910  12439.418  10329.139  10431.354  10536.489    102.215    105.136    117.208
  3.603892  12430.020  10326.992  10429.116  10534.198    102.124    105.082    117.111
  3.605872  12420.663  10324.874  10426.908  10531.937    102.034    105.029    117.015
  3.607850  12411.349  10322.785  10424.730  10529.706    101.945    104.976    116.919
  3.609826  12402.076  10320.725  10422.580  10527.503    101.855    104.923    116.823
  3.611800  12392.845  10318.694  10420.459  10525.330    101.766    104.870    116.727
  3.613772  12383.655  10316.691  10418.368  10523.186    101.677    104.818    116.631
  3.615742  12374.506  10314.717  10416.305  10521.070    101.588    104.766    116.536
  3.617710  12365.398  10312.771  10414.270  10518.983    101.499    104.713    116.441
  3.619675  12356.330  10310.853  10412.263  10516.925    101.411    104.661    116.346
  3.621639  12347.303  10308.963  10410.285  10514.895    101.323    104.609    116.251
  3.623601  12338.316  10307.100  10408.335  10512.893    101.235    104.558    116.157
  3.625561  12329.369  10305.266  10406.413  10510.919    101.147    104.506    116.062
  3.627519  12320.462  10303.459  10404.518  10508.973    101.059    104.455    115.968
  3.629475  12311.594  10301.679  10402.651  10507.054    100.972    104.404    115.874
  3.631428  12302.766  10299.926  10400.811  10505.163    100.885    104.353    115.781
  3.633380  12293.976  10298.201  10398.998  10503.300    100.798    104.302    115.687
  3.635331  12285.226  10296.502  10397.213  10501.464    100.711    104.251    115.594
  3.637279  12276.514  10294.830  10395.454  10499.654    100.624    104.200    115.501
  3.639225  12267.841  10293.184  10393.722  10497.872    100.538    104.150    115.408
  3.641169  12259.206  10291.565  10392.017  10496.117    100.452    104.099    115.316
  3.643112  12250.609  10289.972  10390.338  10494.388    100.366    104.049    115.223
  3.645052  12242.050  10288.406  10388.686  10492.685    100.280    103.999    115.131
  3.646991  12233.529  10286.865  10387.060  10491.009    100.195    103.950    115.039
  3.648928  12225.045  10285.350  10385.459  10489.359    100.109    103.900    114.947
  3.650863  12216.599  10283.861  10383.885  10487.735    100.024    103.850    114.856
  3.652796  12208.190  10282.397  10382.337  10486.137     99.939    103.801    114.764
  3.654727  12199.817  10280.959  10380.814  10484.565     99.855    103.752    114.673
  3.656657  12191.482  10279.546  10379.316  10483.019     99.770    103.703    114.582
  3.658584  12183.183  10278.158  10377.844  10481.498     99.686    103.654    114.492
  3.660510  12174.920  10276.795  10376.397  10480.002     99.602    103.605    114.401
  3.662434  12166.693  10275.457  10374.975  10478.531     99.518    103.556    114.311
  3.664357  12158.503  10274.144  10373.578  10477.086     99.434    103.508    114.221
  3.666277  12150.348  10272.855  10372.206  10475.666     99.351    103.460    114.131
  3.668196  12142.229  10271.591  10370.858  10474.270     99.267    103.411    114.041
  3.670113  12134.145  10270.351  10369.535  10472.899     99.184    103.363    113.952
  3.672028  12126.096  10269.136  10368.237  10471.552     99.101    103.316    113.862
  3.673942  12118.083  10267.944  10366.962  10470.230     99.019    103.268    113.773
  3.675854  12110.104  10266.776  10365.712  10468.933     98.936    103.220    113.685
  3.677764  12102.161  10265.632  10364.486  10467.659     98.854    103.173    113.596
  3.679672  12094.251  10264.512  10363.284  10466.410     98.772    103.126    113.508
  3.681579  12086.376  10263.416  10362.105  10465.184     98.690    103.079    113.419
  3.683484  12078.536  10262.343  10360.950  10463.982     98.608    103.032    113.331
  3.685387  12070.729  10261.293  10359.819  10462.804     98.526    102.985    113.243
  3.687289  12062.956  10260.266  10358.711  10461.649     98.445    102.938    113.156
  3.689189  12055.217  10259.263  10357.626  10460.518     98.364    102.892    113.068
  3.691087  12047.511  10258.282  10356.565  10459.410     98.283    102.845    112.981
  3.692984  12039.839  10257.324  10355.526  10458.325     98.202    102.799    112.894
  3.694879  12032.200  10256.389  10354.511  10457.263     98.121    102.753    112.808
  3.696772  12024.594  10255.477  10353.518  10456.225     98.041    102.707    112.721
  3.698664  12017.021  10254.587  10352.548  10455.209     97.961    102.661    112.635
  3.700554  12009.480  10253.719  10351.600  10454.215     97.881    102.615    112.548
  3.702443  12001.972  10252.874  10350.675  10453.245     97.801    102.570    112.462
  3.704330  11994.496  10252.051  10349.772  10452.296     97.721    102.525    112.377
  3.706215  11987.053  10251.249  10348.891  10451.371     97.642    102.479    112.291
  3.708099  11979.642  10250.470  10348.033  10450.467     97.562    102.434    112.206
  3.709981  11972.262  10249.713  10347.196  10449.585     97.483    102.389    112.121
  3.711862  11964.915  10248.977  10346.381  10448.726     97.404    102.345    112.036
  3.713741  11957.599  10248.263  10345.588  10447.888     97.326    102.300    111.951
  3.715618  11950.314  10247.570  10344.817  10447.072     97.247    102.255    111.866
  3.717494  11943.060  10246.898  10344.067  10446.278     97.169    102.211    111.782
  3.719369  11935.838  10246.248  10343.339  10445.506     97.091    102.167    111.698
  3.721242  11928.647  10245.619  10342.632  10444.754     97.013    102.123    111.614
  3.723113  11921.487  10245.011  10341.946  10444.025     96.935    102.079    111.530
  3.724983  11914.357  10244.424  10341.281  10443.316     96.857    102.035    111.447
  3.726852  11907.258  10243.858  10340.638  10442.629     96.780    101.991    111.364
  3.728719  11900.189  10243.312  10340.015  10441.962     96.703    101.948    111.280
  3.730584  11893.150  10242.787  10339.413  10441.317     96.625    101.904    111.197
  3.732448  11886.142  10242.283  10338.831  10440.692     96.549    101.861    111.115
  3.734311  11879.163  10241.799  10338.271  10440.089     96.472    101.818    111.032
  3.736172  11872.215  10241.335  10337.730  10439.505     96.395    101.775    110.950
  3.738031  11865.296  10240.892  10337.211  10438.943     96.319    101.732    110.868
  3.739889  11858.406  10240.468  10336.711  10438.400     96.243    101.689    110.786
  3.741746  11851.546  10240.065  10336.232  10437.878     96.167    101.647    110.704
  3.743602  11844.715  10239.682  10335.772  10437.377     96.091    101.604    110.623
  3.745455  11837.914  10239.318  10335.333  10436.895     96.015    101.562    110.541
  3.747308  11831.141  10238.974  10334.914  10436.433     95.940    101.520    110.460
  3.749159  11824.397  10238.650  10334.514  10435.992     95.864    101.478    110.379
  3.751009  11817.682  10238.345  10334.134  10435.570     95.789    101.436    110.299
  3.752857  11810.995  10238.059  10333.774  10435.168     95.714    101.394    110.218
  3.754704  11804.337  10237.793  10333.433  10434.786     95.640    101.352    110.138
  3.756549  11797.707  10237.547  10333.112  10434.423     95.565    101.311    110.058
  3.758394  11791.106  10237.319  10332.810  10434.079     95.491    101.269    109.978
  3.760236  11784.532  10237.110  10332.527  10433.755     95.416    101.228    109.898
  3.762078  11777.987  10236.921  10332.263  10433.450     95.342    101.187    109.818
  3.763918  11771.469  10236.750  10332.019  10433.165     95.268    101.146    109.739
  3.765757  11764.979  10236.598  10331.793  10432.898     95.195    101.105    109.660
  3.767594  11758.516  10236.465  10331.586  10432.651     95.121    101.065    109.581
  3.769430  11752.081  10236.350  10331.398  10432.422     95.048    101.024    109.502
  3.771265  11745.673  10236.254  10331.229  10432.212     94.975    100.984    109.424
  3.773098  11739.292  10236.176  10331.078  10432.021     94.902    100.943    109.345
  3.774931  11732.938  10236.117  10330.946  10431.849     94.829    100.903    109.267
  3.776762  11726.611  10236.076  10330.832  10431.695     94.756    100.863    109.189
  3.778591  11720.311  10236.053  10330.736  10431.560     94.684    100.823    109.112
  3.780419  11714.038  10236.048  10330.659  10431.443     94.611    100.783    109.034
  3.782246  11707.791  10236.061  10330.600  10431.344     94.539    100.744    108.957
  3.784072  11701.570  10236.092  10330.559  10431.263     94.467    100.704    108.879
  3.785897  11695.376  10236.141  10330.536  10431.201     94.395    100.665    108.802
  3.787720  11689.208  10236.208  10330.531  10431.157     94.323    100.626    108.726
  3.789542  11683.066  10236.292  10330.544  10431.130     94.252    100.586    108.649
  3.791363  11676.950  10236.394  10330.574  10431.122     94.181    100.547    108.573
  3.793182  11670.860  10236.513  10330.623  10431.131     94.109    100.509    108.496
  3.795000  11664.796  10236.650  10330.688  10431.158     94.038    100.470    108.420
  3.796818  11658.757  10236.804  10330.772  10431.203     93.968    100.431    108.345
  3.798633  11652.744  10236.975  10330.872  10431.265     93.897    100.393    108.269
  3.800448  11646.756  10237.164  10330.990  10431.345     93.826    100.354    108.193
  3.802261  11640.793  10237.370  10331.126  10431.442     93.756    100.316    108.118
  3.804074  11634.856  10237.592  10331.278  10431.556     93.686    100.278    108.043
  3.805885  11628.943  10237.832  10331.448  10431.688     93.616    100.240    107.968
  3.807695  11623.056  10238.088  10331.635  10431.837     93.546    100.202    107.894
  3.809503  11617.193  10238.362  10331.838  10432.002     93.476    100.164    107.819
  3.811311  11611.355  10238.652  10332.059  10432.185     93.407    100.127    107.745
  3.813117  11605.542  10238.958  10332.296  10432.385     93.338    100.089    107.671
  3.814922  11599.753  10239.281  10332.550  10432.602     93.268    100.052    107.597
  3.816726  11593.988  10239.621  10332.821  10432.835     93.199    100.015    107.523
  3.818529  11588.248  10239.977  10333.108  10433.085     93.130     99.978    107.450
  3.820331  11582.532  10240.350  10333.411  10433.352     93.062     99.941    107.376
  3.822132  11576.840  10240.738  10333.732  10433.635     92.993     99.904    107.303
  3.823931  11571.172  10241.143  10334.068  10433.935     92.925     99.867    107.230
  3.825730  11565.528  10241.564  10334.421  10434.251     92.857     99.830    107.157
  3.827527  11559.907  10242.001  10334.790  10434.584     92.789     99.794    107.085
  3.829323  11554.310  10242.454  10335.175  10434.933     92.721     99.757    107.012
  3.831118  11548.737  10242.923  10335.576  10435.298     92.653     99.721    106.940
  3.832912  11543.188  10243.408  10335.994  10435.679     92.585     99.685    106.868
  3.834705  11537.661  10243.909  10336.427  10436.076     92.518     99.649    106.796
  3.836497  11532.158  10244.425  10336.876  10436.489     92.451     99.613    106.725
  3.838287  11526.678  10244.957  10337.341  10436.918     92.384     99.578    106.653
  3.840077  11521.221  10245.504  10337.821  10437.363     92.317     99.542    106.582
  3.841866  11515.787  10246.067  10338.317  10437.824     92.250     99.506    106.511
  3.843653  11510.376  10246.646  10338.829  10438.300     92.183     99.471    106.440
  3.845440  11504.987  10247.239  10339.356  10438.792     92.117     99.436    106.369
  3.847225  11499.622  10247.848  10339.899  10439.300     92.051     99.401    106.298
  3.849010  11494.278  10248.473  10340.457  10439.823     91.984     99.366    106.228
  3.850793  11488.958  10249.112  10341.031  10440.361     91.918     99.331    106.158
  3.852575  11483.659  10249.767  10341.619  10440.915     91.853     99.296    106.088
  3.854357  11478.383  10250.436  10342.223  10441.484     91.787     99.261    106.018
  3.856137  11473.130  10251.121  10342.842  10442.069     91.721     99.227    105.948
  3.857916  11467.898  10251.820  10343.476  10442.668     91.656     99.192    105.879
  3.859694  11462.688  10252.534  10344.125  10443.283     91.591     99.158    105.810
  3.861472  11457.500  10253.263  10344.789  10443.913     91.526     99.124    105.741
  3.863248  11452.334  10254.007  10345.468  10444.558     91.461     99.090    105.672
  3.865023  11447.190  10254.765  10346.162  10445.218     91.396     99.056    105.603
  3.866798  11442.067  10255.538  10346.870  10445.892     91.332     99.022    105.535
  3.868571  11436.966  10256.326  10347.593  10446.581     91.267     98.988    105.466
  3.870343  11431.886  10257.128  10348.331  10447.286     91.203     98.955    105.398
  3.872115  11426.828  10257.944  10349.083  10448.004     91.139     98.921    105.330
  3.873885  11421.791  10258.775  10349.850  10448.738     91.075     98.888    105.262
  3.875655  11416.775  10259.620  10350.631  10449.486     91.011     98.855    105.195
  3.877423  11411.780  10260.479  10351.426  10450.248     90.947     98.822    105.127
  3.879191  11406.806  10261.352  10352.236  10451.025     90.884     98.789    105.060
  3.880958  11401.853  10262.240  10353.060  10451.816     90.820     98.756    104.993
  3.882723  11396.921  10263.141  10353.899  10452.622     90.757     98.723    104.926
  3.884488  11392.010  10264.057  10354.751  10453.441     90.694     98.691    104.859
  3.886252  11387.119  10264.986  10355.617  10454.275     90.631     98.658    104.793
  3.888015  11382.250  10265.929  10356.498  10455.124     90.569     98.626    104.726
  3.889777  11377.400  10266.886  10357.392  10455.986     90.506     98.593    104.660
  3.891538  11372.571  10267.857  10358.301  10456.862     90.444     98.561    104.594
  3.893298  11367.762  10268.842  10359.223  10457.752     90.381     98.529    104.528
  3.895058  11362.974  10269.840  10360.159  10458.656     90.319     98.497    104.463
  3.896816  11358.205  10270.852  10361.109  10459.574     90.257     98.465    104.397
  3.898574  11353.457  10271.877  10362.072  10460.506     90.195     98.434    104.332
  3.900331  11348.729  10272.916  10363.049  10461.452     90.134     98.402    104.267
  3.902086  11344.021  10273.968  10364.040  10462.411     90.072     98.371    104.202
  3.903841  11339.332  10275.034  10365.044  10463.384     90.011     98.339    104.137
  3.905596  11334.664  10276.113  10366.062  10464.370     89.949     98.308    104.073
  3.907349  11330.015  10277.205  10367.093  10465.370     89.888     98.277    104.008
  3.909101  11325.385  10278.310  10368.137  10466.383     89.827     98.246    103.944
  3.910853  11320.776  10279.429  10369.195  10467.410     89.767     98.215    103.880
  3.912603  11316.185  10280.560  10370.266  10468.450     89.706     98.184    103.816
  3.914353  11311.614  10281.705  10371.350  10469.504     89.645     98.154    103.752
  3.916102  11307.062  10282.862  10372.447  10470.571     89.585     98.123    103.689
  3.917851  11302.530  10284.033  10373.558  10471.651     89.525     98.093    103.625
  3.919598  11298.017  10285.216  10374.681  10472.744     89.465     98.063    103.562
  3.921345  11293.522  10286.413  10375.818  10473.850     89.405     98.032    103.499
  3.923090  11289.047  10287.622  10376.967  10474.969     89.345     98.002    103.436
  3.924835  11284.591  10288.844  10378.129  10476.101     89.285     97.972    103.374
  3.926579  11280.153  10290.078  10379.304  10477.247     89.226     97.942    103.311
  3.928323  11275.735  10291.325  10380.492  10478.405     89.167     97.913    103.249
  3.930065  11271.335  10292.585  10381.693  10479.576     89.107     97.883    103.187
  3.931807  11266.953  10293.857  10382.906  10480.759     89.048     97.854    103.125
  3.933548  11262.590  10295.142  10384.132  10481.956     88.990     97.824    103.063
  3.935289  11258.246  10296.439  10385.370  10483.165     88.931     97.795    103.001
  3.937028  11253.920  10297.749  10386.621  10484.387     88.872     97.766    102.940
  3.938767  11249.613  10299.071  10387.885  10485.621     88.814     97.737    102.878
  3.940505  11245.323  10300.405  10389.161  10486.868     88.755     97.708    102.817
  3.942242  11241.052  10301.752  10390.449  10488.128     88.697     97.679    102.756
  3.943978  11236.799  10303.110  10391.750  10489.400     88.639     97.650    102.696
  3.945714  11232.564  10304.481  10393.063  10490.684     88.581     97.622    102.635
  3.947449  11228.347  10305.864  10394.388  10491.981     88.524     97.593    102.575
  3.949183  11224.148  10307.259  10395.725  10493.290     88.466     97.565    102.514
  3.950917  11219.967  10308.666  10397.075  10494.611     88.409     97.537    102.454
  3.952649  11215.804  10310.085  10398.437  10495.945     88.351     97.508    102.394
  3.954381  11211.658  10311.516  10399.810  10497.291     88.294     97.480    102.334
  3.956113  11207.530  10312.959  10401.196  10498.649     88.237     97.452    102.275
  3.957843  11203.420  10314.414  10402.594  10500.019     88.180     97.425    102.215
  3.959573  11199.327  10315.880  10404.004  10501.401     88.124     97.397    102.156
  3.961303  11195.251  10317.358  10405.425  10502.795     88.067     97.369    102.097
  3.963031  11191.193  10318.848  10406.859  10504.201     88.011     97.342    102.038
  3.964759  11187.152  10320.350  10408.304  10505.618     87.954     97.314    101.979
  3.966486  11183.129  10321.863  10409.761  10507.048     87.898     97.287    101.921
  3.968212  11179.122  10323.388  10411.230  10508.490     87.842     97.260    101.862
  3.969938  11175.133  10324.924  10412.710  10509.943     87.786     97.233    101.804
  3.971663  11171.161  10326.472  10414.202  10511.408     87.731     97.206    101.746
  3.973388  11167.206  10328.031  10415.706  10512.885     87.675     97.179    101.688
  3.975111  11163.267  10329.601  10417.221  10514.373     87.619     97.153    101.630
  3.976834  11159.346  10331.183  10418.747  10515.873     87.564     97.126    101.573
  3.978557  11155.441  10332.776  10420.285  10517.385     87.509     97.099    101.515
  3.980279  11151.553  10334.381  10421.835  10518.908     87.454     97.073    101.458
  3.982000  11147.682  10335.997  10423.396  10520.442     87.399     97.047    101.401
  3.983720  11143.828  10337.623  10424.968  10521.988     87.344     97.021    101.344
  3.985440  11139.990  10339.262  10426.551  10523.546     87.290     96.995    101.287
  3.987159  11136.168  10340.911  10428.146  10525.115     87.235     96.969    101.231
  3.988878  11132.363  10342.571  10429.752  10526.695     87.181     96.943    101.174
  3.990596  11128.574  10344.242  10431.369  10528.286     87.127     96.917    101.118
  3.992313  11124.802  10345.924  10432.997  10529.889     87.073     96.891    101.062
  3.994030  11121.046  10347.618  10434.636  10531.502     87.019     96.866    101.006
  3.995746  11117.306  10349.322  10436.287  10533.127     86.965     96.841    100.950
  3.997462  11113.582  10351.037  10437.948  10534.763     86.912     96.815    100.894
  3.999177  11109.874  10352.762  10439.620  10536.410     86.858     96.790    100.839
  4.000891  11106.182  10354.499  10441.304  10538.069     86.805     96.765    100.783
  4.002605  11102.506  10356.246  10442.998  10539.738     86.752     96.740    100.728
  4.004318  11098.846  10358.004  10444.703  10541.418     86.698     96.715    100.673
  4.006030  11095.202  10359.773  10446.418  10543.109     86.646     96.691    100.618
  4.007742  11091.574  10361.552  10448.145  10544.811     86.593     96.666    100.564
  4.009454  11087.961  10363.342  10449.882  10546.524     86.540     96.641    100.509
  4.011164  11084.364  10365.143  10451.630  10548.247     86.488     96.617    100.455
  4.012875  11080.783  10366.954  10453.389  10549.981     86.435     96.593    100.401
  4.014584  11077.217  10368.775  10455.158  10551.726     86.383     96.568    100.347
  4.016294  11073.667  10370.607  10456.938  10553.482     86.331     96.544    100.293
  4.018002  11070.132  10372.449  10458.728  10555.249     86.279     96.520    100.239
  4.019710  11066.613  10374.302  10460.529  10557.026     86.227     96.497    100.186
  4.021418  11063.109  10376.165  10462.340  10558.813     86.175     96.473    100.132
  4.023125  11059.620  10378.038  10464.162  10560.611     86.124     96.449    100.079
  4.024831  11056.146  10379.922  10465.994  10562.420     86.072     96.426    100.026
  4.026537  11052.688  10381.816  10467.837  10564.239     86.021     96.402     99.973
  4.028242  11049.245  10383.720  10469.690  10566.069     85.970     96.379     99.920
  4.029947  11045.816  10385.634  10471.553  10567.909     85.919     96.356     99.868
  4.031651  11042.403  10387.558  10473.426  10569.759     85.868     96.332     99.815
  4.033355  11039.005  10389.493  10475.310  10571.620     85.818     96.309     99.763
  4.035058  11035.621  10391.437  10477.204  10573.490     85.767     96.287     99.711
  4.036761  11032.253  10393.391  10479.108  10575.372     85.716     96.264     99.659
  4.038463  11028.899  10395.356  10481.022  10577.263     85.666     96.241     99.607
  4.040165  11025.560  10397.330  10482.946  10579.165     85.616     96.218     99.555
  4.041866  11022.236  10399.315  10484.881  10581.077     85.566     96.196     99.504
  4.043567  11018.926  10401.309  10486.825  10582.998     85.516     96.174     99.452
  4.045267  11015.631  10403.313  10488.779  10584.930     85.466     96.151     99.401
  4.046967  11012.351  10405.327  10490.743  10586.872     85.417     96.129     99.350
  4.048667  11009.085  10407.350  10492.717  10588.825     85.367     96.107     99.299
  4.050365  11005.833  10409.384  10494.701  10590.787     85.318     96.085     99.248
  4.052064  11002.596  10411.427  10496.695  10592.759     85.269     96.063     99.198
  4.053762  10999.373  10413.479  10498.699  10594.741     85.219     96.042     99.147
  4.055459  10996.165  10415.542  10500.712  10596.732     85.171     96.020     99.097
  4.057156  10992.970  10417.614  10502.736  10598.734     85.122     95.999     99.047
  4.058853  10989.790  10419.696  10504.769  10600.746     85.073     95.977     98.997
  4.060549  10986.624  10421.787  10506.811  10602.767     85.024     95.956     98.947
  4.062244  10983.472  10423.887  10508.864  10604.798     84.976     95.935     98.897
  4.063940  10980.334  10425.998  10510.925  10606.839     84.928     95.914     98.848
  4.065634  10977.211  10428.117  10512.997  10608.889     84.880     95.893     98.798
  4.067329  10974.101  10430.246  10515.078  10610.950     84.832     95.872     98.749
  4.069023  10971.005  10432.385  10517.169  10613.019     84.784     95.851     98.700
  4.070716  10967.923  10434.533  10519.269  10615.099     84.736     95.830     98.651
  4.072409  10964.854  10436.690  10521.378  10617.188     84.688     95.810     98.602
  4.074102  10961.800  10438.856  10523.497  10619.286     84.641     95.789     98.554
  4.075794  10958.759  10441.032  10525.626  10621.395     84.594     95.769     98.505
  4.077486  10955.732  10443.217  10527.763  10623.512     84.546     95.749     98.457
  4.079177  10952.718  10445.411  10529.911  10625.639     84.499     95.728     98.409
  4.080868  10949.718  10447.615  10532.067  10627.775     84.452     95.708     98.361
  4.082559  10946.732  10449.827  10534.233  10629.921     84.406     95.688     98.313
  4.084249  10943.759  10452.049  10536.408  10632.076     84.359     95.669     98.265
  4.085939  10940.799  10454.280  10538.592  10634.241     84.312     95.649     98.218
  4.087628  10937.853  10456.519  10540.785  10636.415     84.266     95.629     98.170
  4.089317  10934.921  10458.768  10542.988  10638.598     84.220     95.610     98.123
  4.091006  10932.001  10461.026  10545.200  10640.790     84.174     95.590     98.076
  4.092694  10929.095  10463.293  10547.421  10642.992     84.128     95.571     98.029
  4.094382  10926.202  10465.569  10549.651  10645.202     84.082     95.552     97.982
  4.096070  10923.322  10467.854  10551.890  10647.422     84.036     95.533     97.935
  4.097757  10920.456  10470.147  10554.138  10649.651     83.990     95.514     97.889
  4.099444  10917.602  10472.450  10556.395  10651.890     83.945     95.495     97.842
  4.101130  10914.762  10474.761  10558.661  10654.137     83.900     95.476     97.796
  4.102816  10911.934  10477.081  10560.935  10656.393     83.854     95.458     97.750
  4.104502  10909.120  10479.410  10563.219  10658.658     83.809     95.439     97.704
  4.106188  10906.318  10481.748  10565.512  10660.933     83.764     95.421     97.658
  4.107873  10903.529  10484.094  10567.814  10663.216     83.720     95.402     97.613
  4.109558  10900.753  10486.449  10570.124  10665.508     83.675     95.384     97.567
  4.111242  10897.990  10488.813  10572.443  10667.809     83.630     95.366     97.522
  4.112926  10895.240  10491.185  10574.771  10670.119     83.586     95.348     97.476
  4.114610  10892.502  10493.566  10577.108  10672.438     83.542     95.330     97.431
  4.116293  10889.777  10495.956  10579.453  10674.765     83.498     95.312     97.386
  4.117976  10887.065  10498.354  10581.808  10677.102     83.454     95.294     97.342
  4.119659  10884.365  10500.761  10584.170  10679.447     83.410     95.277     97.297
  4.121342  10881.678  10503.176  10586.542  10681.801     83.366     95.259     97.252
  4.123024  10879.003  10505.600  10588.922  10684.164     83.322     95.242     97.208
  4.124706  10876.341  10508.032  10591.311  10686.535     83.279     95.224     97.164
  4.126387  10873.691  10510.472  10593.708  10688.915     83.236     95.207     97.120
  4.128069  10871.054  10512.921  10596.114  10691.304     83.192     95.190     97.076
  4.129750  10868.429  10515.379  10598.528  10693.701     83.149     95.173     97.032
  4.131430  10865.816  10517.845  10600.951  10696.107     83.106     95.156     96.988
  4.133111  10863.215  10520.319  10603.382  10698.522     83.063     95.139     96.945
  4.134791  10860.627  10522.801  10605.822  10700.945     83.021     95.123     96.902
  4.136471  10858.051  10525.292  10608.270  10703.376     82.978     95.106     96.858
  4.138151  10855.487  10527.791  10610.727  10705.816     82.936     95.090     96.815
  4.139830  10852.935  10530.298  10613.191  10708.265     82.894     95.073     96.772
  4.141509  10850.396  10532.813  10615.665  10710.722     82.851     95.057     96.729
  4.143188  10847.868  10535.337  10618.146  10713.187     82.809     95.041     96.687
  4.144866  10845.352  10537.869  10620.636  10715.661     82.767     95.025     96.644
  4.146545  10842.849  10540.408  10623.134  10718.143     82.726     95.009     96.602
  4.148223  10840.357  10542.956  10625.640  10720.633     82.684     94.993     96.560
  4.149900  10837.877  10545.512  10628.155  10723.132     82.643     94.977     96.518
  4.151578  10835.409  10548.077  10630.678  10725.639     82.601     94.962     96.476
  4.153255  10832.952  10550.649  10633.209  10728.155     82.560     94.946     96.434
  4.154932  10830.508  10553.229  10635.748  10730.678     82.519     94.931     96.392
  4.156609  10828.075  10555.817  10638.295  10733.210     82.478     94.915     96.350
  4.158286  10825.654  10558.413  10640.850  10735.750     82.437     94.900     96.309
  4.159962  10823.245  10561.017  10643.414  10738.299     82.396     94.885     96.268
  4.161638  10820.847  10563.629  10645.985  10740.855     82.356     94.870     96.227
  4.163314  10818.461  10566.249  10648.564  10743.419     82.315     94.855     96.186
  4.164990  10816.086  10568.877  10651.152  10745.992     82.275     94.840     96.145
  4.166666  10813.723  10571.513  10653.747  10748.573     82.235     94.826     96.104
  4.168341  10811.372  10574.156  10656.351  10751.162     82.195     94.811     96.063
  4.170016  10809.032  10576.807  10658.962  10753.759     82.155     94.796     96.023
  4.171691  10806.703  10579.466  10661.581  10756.363     82.115     94.782     95.983
  4.173366  10804.386  10582.133  10664.209  10758.976     82.075     94.768     95.942
  4.175040  10802.080  10584.808  10666.844  10761.597     82.036     94.754     95.902
  4.176714  10799.785  10587.490  10669.486  10764.226     81.996     94.739     95.863
  4.178389  10797.502  10590.180  10672.137  10766.863     81.957     94.726     95.823
  4.180063  10795.230  10592.878  10674.796  10769.507     81.918     94.712     95.783
  4.181736  10792.969  10595.583  10677.462  10772.160     81.879     94.698     95.744
  4.183410  10790.719  10598.296  10680.136  10774.820     81.840     94.684     95.704
  4.185083  10788.480  10601.016  10682.818  10777.489     81.801     94.671     95.665
  4.186757  10786.253  10603.745  10685.507  10780.165     81.763     94.657     95.626
  4.188430  10784.037  10606.480  10688.205  10782.848     81.724     94.644     95.587
  4.190103  10781.831  10609.224  10690.910  10785.540     81.686     94.631     95.548
  4.191775  10779.637  10611.974  10693.622  10788.240     81.648     94.617     95.509
  4.193448  10777.454  10614.733  10696.342  10790.947     81.610     94.604     95.471
  4.195120  10775.281  10617.499  10699.070  10793.662     81.572     94.591     95.432
  4.196793  10773.120  10620.272  10701.806  10796.384     81.534     94.579     95.394
  4.198465  10770.969  10623.053  10704.549  10799.114     81.496     94.566     95.356
  4.200137  10768.829  10625.841  10707.299  10801.852     81.459     94.553     95.318
  4.201809  10766.701  10628.636  10710.057  10804.598     81.421     94.541     95.280
  4.203481  10764.582  10631.439  10712.823  10807.351     81.384     94.528     95.242
  4.205152  10762.475  10634.249  10715.596  10810.112     81.347     94.516     95.205
  4.206824  10760.378  10637.067  10718.377  10812.880     81.310     94.504     95.167
  4.208495  10758.292  10639.892  10721.165  10815.656     81.273     94.492     95.130
  4.210166  10756.217  10642.724  10723.960  10818.440     81.236     94.480     95.093
  4.211837  10754.153  10645.564  10726.763  10821.231     81.199     94.468     95.055
  4.213508  10752.099  10648.411  10729.573  10824.029     81.163     94.456     95.018
  4.215179  10750.055  10651.265  10732.391  10826.835     81.126     94.444     94.982
  4.216850  10748.022  10654.126  10735.216  10829.649     81.090     94.433     94.945
  4.218521  10746.000  10656.994  10738.048  10832.469     81.054     94.421     94.908
  4.220192  10743.988  10659.870  10740.888  10835.298     81.018     94.410     94.872
  4.221862  10741.986  10662.753  10743.735  10838.133     80.982     94.398     94.836
  4.223532  10739.995  10665.643  10746.589  10840.976     80.946     94.387     94.799
  4.225203  10738.015  10668.540  10749.451  10843.827     80.911     94.376     94.763
  4.226873  10736.044  10671.444  10752.319  10846.685     80.875     94.365     94.727
  4.228543  10734.084  10674.355  10755.195  10849.550     80.840     94.354     94.692
  4.230213  10732.135  10677.274  10758.079  10852.422     80.805     94.344     94.656
  4.231883  10730.195  10680.199  10760.969  10855.302     80.770     94.333     94.620
  4.233553  10728.266  10683.132  10763.867  10858.189     80.735     94.322     94.585
  4.235223  10726.347  10686.071  10766.771  10861.083     80.700     94.312     94.550
  4.236893  10724.438  10689.018  10769.683  10863.985     80.665     94.302     94.514
  4.238563  10722.540  10691.971  10772.602  10866.893     80.631     94.291     94.479
  4.240232  10720.651  10694.932  10775.528  10869.809     80.596     94.281     94.444
  4.241902  10718.773  10697.899  10778.461  10872.732     80.562     94.271     94.410
  4.243571  10716.904  10700.873  10781.401  10875.662     80.528     94.261     94.375
  4.245241  10715.046  10703.855  10784.348  10878.600     80.494     94.251     94.340
  4.246910  10713.198  10706.843  10787.303  10881.544     80.460     94.242     94.306
  4.248580  10711.360  10709.838  10790.264  10884.496     80.426     94.232     94.272
  4.250249  10709.531  10712.840  10793.232  10887.455     80.392     94.222     94.238
  4.251918  10707.713  10715.848  10796.207  10890.420     80.359     94.213     94.204
  4.253588  10705.904  10718.864  10799.189  10893.393     80.326     94.204     94.170
  4.255257  10704.106  10721.886  10802.179  10896.373     80.292     94.195     94.136
  4.256926  10702.317  10724.915  10805.175  10899.360     80.259     94.185     94.102
  4.258596  10700.538  10727.951  10808.178  10902.354     80.226     94.176     94.069
  4.260265  10698.769  10730.994  10811.187  10905.355     80.193     94.168     94.035
  4.261934  10697.010  10734.043  10814.204  10908.363     80.161     94.159     94.002
  4.263603  10695.260  10737.100  10817.228  10911.378     80.128     94.150     93.969
  4.265272  10693.520  10740.162  10820.258  10914.399     80.096     94.142     93.936
  4.266942  10691.790  10743.232  10823.295  10917.428     80.063     94.133     93.903
  4.268611  10690.069  10746.308  10826.339  10920.464     80.031     94.125     93.870
  4.270280  10688.359  10749.391  10829.390  10923.506     79.999     94.116     93.838
  4.271949  10686.657  10752.480  10832.447  10926.556     79.967     94.108     93.805
  4.273618  10684.966  10755.576  10835.512  10929.612     79.935     94.100     93.773
  4.275287  10683.283  10758.679  10838.583  10932.675     79.904     94.092     93.740
  4.276957  10681.611  10761.789  10841.660  10935.745     79.872     94.084     93.708
  4.278626  10679.948  10764.904  10844.745  10938.822     79.841     94.077     93.676
  4.280295  10678.294  10768.027  10847.836  10941.905     79.809     94.069     93.644
  4.281964  10676.650  10771.156  10850.934  10944.995     79.778     94.061     93.612
  4.283634  10675.015  10774.291  10854.038  10948.092     79.747     94.054     93.581
  4.285303  10673.390  10777.433  10857.150  10951.196     79.716     94.047     93.549
  4.286972  10671.774  10780.582  10860.267  10954.307     79.685     94.039     93.518
  4.288642  10670.167  10783.737  10863.392  10957.424     79.655     94.032     93.487
  4.290311  10668.570  10786.898  10866.523  10960.548     79.624     94.025     93.455
  4.291981  10666.982  10790.066  10869.660  10963.679     79.594     94.018     93.424
  4.293650  10665.403  10793.241  10872.804  10966.816     79.564     94.012     93.393
  4.295320  10663.834  10796.421  10875.955  10969.960     79.534     94.005     93.363
  4.296990  10662.274  10799.609  10879.112  10973.111     79.504     93.998     93.332
  4.298659  10660.723  10802.802  10882.276  10976.268     79.474     93.992     93.301
  4.300329  10659.181  10806.002  10885.446  10979.432     79.444     93.985     93.271
  4.301999  10657.649  10809.208  10888.623  10982.602     79.415     93.979     93.240
  4.303669  10656.125  10812.421  10891.806  10985.779     79.385     93.973     93.210
  4.305339  10654.611  10815.640  10894.996  10988.963     79.356     93.967     93.180
  4.307009  10653.106  10818.865  10898.192  10992.153     79.327     93.961     93.150
  4.308679  10651.609  10822.097  10901.395  10995.350     79.298     93.955     93.120
  4.310349  10650.122  10825.335  10904.604  10998.553     79.269     93.949     93.091
  4.312019  10648.644  10828.579  10907.819  11001.763     79.240     93.944     93.061
  4.313690  10647.175  10831.829  10911.041  11004.979     79.211     93.938     93.031
  4.315360  10645.715  10835.086  10914.269  11008.202     79.183     93.933     93.002
  4.317031  10644.264  10838.349  10917.503  11011.431     79.154     93.927     92.973
  4.318701  10642.822  10841.618  10920.744  11014.666     79.126     93.922     92.944
  4.320372  10641.388  10844.893  10923.991  11017.908     79.098     93.917     92.915
  4.322043  10639.964  10848.175  10927.245  11021.157     79.070     93.912     92.886
  4.323714  10638.548  10851.462  10930.505  11024.412     79.042     93.907     92.857
  4.325385  10637.142  10854.756  10933.771  11027.673     79.015     93.902     92.828
  4.327056  10635.744  10858.056  10937.043  11030.941     78.987     93.898     92.800
  4.328727  10634.355  10861.362  10940.322  11034.215     78.960     93.893     92.771
  4.330399  10632.974  10864.675  10943.607  11037.495     78.932     93.889     92.743
  4.332070  10631.603  10867.993  10946.898  11040.782     78.905     93.884     92.715
  4.333742  10630.240  10871.317  10950.195  11044.075     78.878     93.880     92.687
  4.335414  10628.886  10874.648  10953.499  11047.375     78.851     93.876     92.659
  4.337086  10627.541  10877.984  10956.809  11050.680     78.824     93.872     92.631
  4.338758  10626.204  10881.327  10960.125  11053.992     78.798     93.868     92.603
  4.340430  10624.876  10884.676  10963.447  11057.311     78.771     93.864     92.575
  4.342102  10623.556  10888.030  10966.775  11060.635     78.745     93.860     92.548
  4.343775  10622.245  10891.391  10970.109  11063.966     78.719     93.856     92.520
  4.345447  10620.943  10894.758  10973.450  11067.303     78.692     93.853     92.493
  4.347120  10619.649  10898.130  10976.797  11070.646     78.666     93.849     92.466
  4.348793  10618.364  10901.509  10980.150  11073.996     78.641     93.846     92.439
  4.350466  10617.088  10904.894  10983.508  11077.351     78.615     93.843     92.412
  4.352140  10615.819  10908.284  10986.873  11080.713     78.589     93.840     92.385
  4.353813  10614.560  10911.681  10990.245  11084.081     78.564     93.837     92.358
  4.355487  10613.309  10915.083  10993.622  11087.456     78.539     93.834     92.332
  4.357160  10612.066  10918.491  10997.005  11090.836     78.513     93.831     92.305
  4.358834  10610.831  10921.906  11000.394  11094.222     78.488     93.828     92.279
  4.360508  10609.606  10925.326  11003.789  11097.615     78.463     93.826     92.253
  4.362183  10608.388  10928.752  11007.190  11101.014     78.439     93.823     92.227
  4.363857  10607.179  10932.184  11010.598  11104.419     78.414     93.821     92.201
  4.365532  10605.978  10935.621  11014.011  11107.830     78.390     93.819     92.175
  4.367207  10604.785  10939.065  11017.430  11111.247     78.365     93.817     92.149
  4.368882  10603.601  10942.514  11020.855  11114.670     78.341     93.815     92.123
  4.370557  10602.425  10945.969  11024.286  11118.099     78.317     93.813     92.098
  4.372232  10601.258  10949.430  11027.723  11121.534     78.293     93.811     92.072
  4.373908  10600.098  10952.897  11031.166  11124.975     78.269     93.809     92.047
  4.375584  10598.947  10956.370  11034.615  11128.422     78.245     93.807     92.021
  4.377260  10597.804  10959.848  11038.070  11131.876     78.222     93.806     91.996
  4.378936  10596.669  10963.332  11041.530  11135.335     78.198     93.805     91.971
  4.380613  10595.543  10966.822  11044.997  11138.800     78.175     93.803     91.946
  4.382290  10594.424  10970.317  11048.469  11142.271     78.152     93.802     91.922
  4.383966  10593.314  10973.819  11051.947  11145.748     78.129     93.801     91.897
  4.385644  10592.211  10977.326  11055.432  11149.232     78.106     93.800     91.872
  4.387321  10591.117  10980.838  11058.921  11152.721     78.083     93.799     91.848
  4.388999  10590.031  10984.357  11062.417  11156.216     78.061     93.798     91.824
  4.390677  10588.953  10987.881  11065.919  11159.716     78.038     93.798     91.799
  4.392355  10587.883  10991.410  11069.426  11163.223     78.016     93.797     91.775
  4.394033  10586.821  10994.946  11072.939  11166.736     77.994     93.797     91.751
  4.395712  10585.767  10998.487  11076.458  11170.255     77.972     93.796     91.727
  4.397390  10584.721  11002.033  11079.983  11173.779     77.950     93.796     91.703
  4.399070  10583.683  11005.585  11083.513  11177.309     77.928     93.796     91.680
  4.400749  10582.653  11009.143  11087.049  11180.846     77.906     93.796     91.656
  4.402429  10581.631  11012.707  11090.591  11184.388     77.885     93.796     91.633
  4.404108  10580.617  11016.276  11094.139  11187.935     77.863     93.797     91.609
  4.405789  10579.611  11019.850  11097.692  11191.489     77.842     93.797     91.586
  4.407469  10578.612  11023.430  11101.251  11195.048     77.821     93.797     91.563
  4.409150  10577.622  11027.016  11104.816  11198.614     77.800     93.798     91.540
  4.410831  10576.639  11030.607  11108.386  11202.185     77.779     93.798     91.517
  4.412512  10575.664  11034.204  11111.962  11205.762     77.758     93.799     91.494
  4.414193  10574.697  11037.806  11115.544  11209.344     77.738     93.800     91.471
  4.415875  10573.738  11041.414  11119.132  11212.933     77.717     93.801     91.449
  4.417557  10572.786  11045.028  11122.725  11216.527     77.697     93.802     91.426
  4.419240  10571.843  11048.646  11126.323  11220.127     77.677     93.803     91.404
  4.420922  10570.907  11052.271  11129.928  11223.732     77.657     93.805     91.382
  4.422605  10569.978  11055.900  11133.537  11227.343     77.637     93.806     91.359
  4.424289  10569.058  11059.536  11137.153  11230.960     77.617     93.808     91.337
  4.425972  10568.145  11063.176  11140.774  11234.583     77.598     93.809     91.315
  4.427656  10567.240  11066.822  11144.401  11238.212     77.578     93.811     91.293
  4.429340  10566.342  11070.474  11148.033  11241.846     77.559     93.813     91.272
  4.431025  10565.453  11074.131  11151.671  11245.485     77.540     93.815     91.250
  4.432710  10564.570  11077.793  11155.314  11249.131     77.521     93.817     91.228
  4.434395  10563.696  11081.461  11158.963  11252.782     77.502     93.819     91.207
  4.436080  10562.829  11085.134  11162.617  11256.439     77.483     93.821     91.186
  4.437766  10561.969  11088.813  11166.277  11260.101     77.464     93.824     91.164
  4.439452  10561.117  11092.497  11169.942  11263.769     77.446     93.826     91.143
  4.441139  10560.273  11096.186  11173.613  11267.442     77.427     93.829     91.122
  4.442825  10559.436  11099.881  11177.290  11271.121     77.409     93.832     91.101
  4.444513  10558.607  11103.581  11180.972  11274.806     77.391     93.835     91.081
  4.446200  10557.785  11107.286  11184.659  11278.497     77.373     93.837     91.060
  4.447888  10556.971  11110.997  11188.352  11282.192     77.355     93.841     91.039
  4.449576  10556.164  11114.712  11192.050  11285.894     77.338     93.844     91.019
  4.451265  10555.365  11118.434  11195.754  11289.601     77.320     93.847     90.998
  4.452954  10554.573  11122.160  11199.463  11293.314     77.303     93.850     90.978
  4.454643  10553.789  11125.892  11203.178  11297.032     77.286     93.854     90.958
  4.456332  10553.012  11129.629  11206.898  11300.755     77.268     93.858     90.938
  4.458022  10552.242  11133.372  11210.623  11304.484     77.252     93.861     90.918
  4.459713  10551.480  11137.119  11214.354  11308.219     77.235     93.865     90.898
  4.461403  10550.725  11140.872  11218.090  11311.959     77.218     93.869     90.878
  4.463095  10549.977  11144.630  11221.832  11315.705     77.201     93.873     90.859
  4.464786  10549.237  11148.394  11225.579  11319.456     77.185     93.877     90.839
  4.466478  10548.504  11152.162  11229.331  11323.213     77.169     93.882     90.820
  4.468170  10547.779  11155.936  11233.089  11326.975     77.153     93.886     90.800
  4.469863  10547.060  11159.715  11236.852  11330.742     77.137     93.891     90.781
  4.471556  10546.350  11163.499  11240.620  11334.515     77.121     93.895     90.762
  4.473249  10545.646  11167.289  11244.394  11338.294     77.105     93.900     90.743
  4.474943  10544.949  11171.083  11248.173  11342.078     77.090     93.905     90.724
  4.476637  10544.260  11174.883  11251.957  11345.867     77.074     93.910     90.705
  4.478332  10543.578  11178.688  11255.747  11349.662     77.059     93.915     90.686
  4.480027  10542.903  11182.498  11259.542  11353.462     77.044     93.920     90.668
  4.481723  10542.236  11186.313  11263.342  11357.267     77.029     93.925     90.649
  4.483418  10541.576  11190.134  11267.148  11361.078     77.014     93.931     90.631
  4.485115  10540.922  11193.959  11270.958  11364.895     76.999     93.936     90.612
  4.486811  10540.276  11197.790  11274.774  11368.716     76.985     93.942     90.594
  4.488509  10539.637  11201.625  11278.596  11372.543     76.970     93.948     90.576
  4.490206  10539.006  11205.466  11282.422  11376.376     76.956     93.953     90.558
  4.491904  10538.381  11209.312  11286.254  11380.214     76.942     93.959     90.540
  4.493603  10537.764  11213.163  11290.091  11384.057     76.928     93.965     90.522
  4.495301  10537.153  11217.019  11293.933  11387.905     76.914     93.972     90.504
  4.497001  10536.550  11220.881  11297.781  11391.759     76.900     93.978     90.487
  4.498701  10535.953  11224.747  11301.634  11395.618     76.887     93.984     90.469
  4.500401  10535.364  11228.618  11305.491  11399.482     76.873     93.991     90.452
  4.502101  10534.782  11232.494  11309.354  11403.352     76.860     93.998     90.435
  4.503803  10534.207  11236.376  11313.223  11407.227     76.847     94.004     90.417
  4.505504  10533.639  11240.262  11317.096  11411.107     76.834     94.011     90.400
  4.507206  10533.078  11244.154  11320.975  11414.993     76.821     94.018     90.383
  4.508909  10532.523  11248.050  11324.859  11418.884     76.808     94.025     90.366
  4.510612  10531.976  11251.951  11328.747  11422.780     76.796     94.033     90.349
  4.512315  10531.436  11255.858  11332.641  11426.681     76.784     94.040     90.333
  4.514019  10530.903  11259.769  11336.541  11430.588     76.771     94.047     90.316
  4.515724  10530.377  11263.686  11340.445  11434.500     76.759     94.055     90.299
  4.517428  10529.857  11267.607  11344.354  11438.417     76.747     94.063     90.283
  4.519134  10529.345  11271.534  11348.269  11442.340     76.735     94.071     90.267
  4.520840  10528.839  11275.465  11352.189  11446.267     76.724     94.078     90.250
  4.522546  10528.341  11279.401  11356.113  11450.200     76.712     94.086     90.234
  4.524253  10527.849  11283.343  11360.043  11454.138     76.701     94.095     90.218
  4.525960  10527.364  11287.289  11363.978  11458.081     76.690     94.103     90.202
  4.527668  10526.886  11291.240  11367.918  11462.030     76.678     94.111     90.186
  4.529377  10526.415  11295.196  11371.863  11465.983     76.667     94.120     90.171
  4.531085  10525.950  11299.157  11375.814  11469.942     76.657     94.128     90.155
  4.532795  10525.493  11303.123  11379.769  11473.906     76.646     94.137     90.139
  4.534505  10525.042  11307.094  11383.729  11477.875     76.635     94.146     90.124
  4.536215  10524.598  11311.069  11387.695  11481.849     76.625     94.155     90.109
  4.537926  10524.161  11315.050  11391.665  11485.829     76.615     94.164     90.093
  4.539638  10523.731  11319.035  11395.640  11489.813     76.605     94.173     90.078
  4.541350  10523.307  11323.026  11399.621  11493.803     76.595     94.182     90.063
  4.543062  10522.890  11327.021  11403.606  11497.798     76.585     94.192     90.048
  4.544775  10522.480  11331.021  11407.597  11501.798     76.576     94.201     90.033
  4.546489  10522.077  11335.026  11411.592  11505.803     76.566     94.211     90.018
  4.548203  10521.680  11339.036  11415.593  11509.813     76.557     94.221     90.004
  4.549918  10521.290  11343.050  11419.598  11513.829     76.548     94.231     89.989
  4.551633  10520.907  11347.070  11423.608  11517.849     76.538     94.241     89.975
  4.553349  10520.530  11351.094  11427.624  11521.875     76.530     94.251     89.960
  4.555065  10520.161  11355.123  11431.644  11525.905     76.521     94.261     89.946
  4.556782  10519.797  11359.157  11435.670  11529.941     76.512     94.271     89.932
  4.558500  10519.441  11363.196  11439.700  11533.982     76.504     94.282     89.918
  4.560218  10519.091  11367.240  11443.735  11538.028     76.496     94.293     89.904
  4.561936  10518.748  11371.288  11447.775  11542.079     76.487     94.303     89.890
  4.563656  10518.411  11375.341  11451.821  11546.135     76.479     94.314     89.876
  4.565375  10518.081  11379.399  11455.871  11550.196     76.472     94.325     89.862
  4.567096  10517.758  11383.462  11459.926  11554.262     76.464     94.336     89.848
  4.568817  10517.441  11387.529  11463.986  11558.333     76.456     94.347     89.835
  4.570538  10517.131  11391.601  11468.050  11562.409     76.449     94.359     89.821
  4.572260  10516.827  11395.678  11472.120  11566.490     76.442     94.370     89.808
  4.573983  10516.530  11399.760  11476.195  11570.576     76.435     94.382     89.795
  4.575706  10516.240  11403.847  11480.274  11574.668     76.428     94.393     89.782
  4.577430  10515.956  11407.938  11484.359  11578.764     76.421     94.405     89.768
  4.579155  10515.678  11412.034  11488.448  11582.865     76.414     94.417     89.755
  4.580880  10515.408  11416.135  11492.542  11586.971     76.408     94.429     89.743
  4.582606  10515.143  11420.240  11496.641  11591.082     76.401     94.441     89.730
  4.584332  10514.885  11424.350  11500.745  11595.199     76.395     94.453     89.717
  4.586059  10514.634  11428.465  11504.854  11599.320     76.389     94.466     89.704
  4.587787  10514.389  11432.584  11508.968  11603.446     76.383     94.478     89.692
  4.589515  10514.151  11436.709  11513.086  11607.577     76.378     94.491     89.679
  4.591244  10513.919  11440.838  11517.210  11611.713     76.372     94.504     89.667
  4.592974  10513.694  11444.971  11521.338  11615.854     76.367     94.516     89.655
  4.594704  10513.475  11449.109  11525.471  11620.000     76.361     94.529     89.643
  4.596434  10513.262  11453.252  11529.609  11624.151     76.356     94.542     89.631
  4.598166  10513.056  11457.400  11533.751  11628.307     76.351     94.556     89.619
  4.599898  10512.856  11461.552  11537.899  11632.468     76.347     94.569     89.607
  4.601631  10512.663  11465.709  11542.051  11636.634     76.342     94.582     89.595
  4.603364  10512.476  11469.871  11546.208  11640.804     76.337     94.596     89.583
  4.605098  10512.296  11474.037  11550.370  11644.980     76.333     94.610     89.572
  4.606833  10512.122  11478.208  11554.537  11649.160     76.329     94.624     89.560
  4.608568  10511.954  11482.383  11558.708  11653.346     76.325     94.638     89.549
  4.610304  10511.793  11486.563  11562.884  11657.536     76.321     94.652     89.537
  4.612041  10511.638  11490.748  11567.065  11661.731     76.317     94.666     89.526
  4.613779  10511.489  11494.938  11571.251  11665.931     76.314     94.680     89.515
  4.615517  10511.347  11499.131  11575.442  11670.136     76.310     94.695     89.504
  4.617255  10511.211  11503.330  11579.637  11674.346     76.307     94.709     89.493
  4.618995  10511.082  11507.533  11583.837  11678.561     76.304     94.724     89.482
  4.620735  10510.959  11511.741  11588.042  11682.780     76.301     94.739     89.471
  4.622476  10510.842  11515.953  11592.251  11687.005     76.298     94.754     89.461
  4.624218  10510.731  11520.170  11596.466  11691.234     76.295     94.769     89.450
  4.625960  10510.627  11524.392  11600.685  11695.468     76.293     94.784     89.440
  4.627703  10510.529  11528.618  11604.908  11699.708     76.291     94.799     89.429
  4.629446  10510.437  11532.848  11609.137  11703.951     76.289     94.814     89.419
  4.631191  10510.352  11537.084  11613.370  11708.200     76.287     94.830     89.409
  4.632936  10510.273  11541.323  11617.608  11712.454     76.285     94.846     89.398
  4.634682  10510.200  11545.568  11621.851  11716.712     76.283     94.861     89.388
  4.636428  10510.133  11549.817  11626.098  11720.975     76.281     94.877     89.378
  4.638176  10510.073  11554.070  11630.350  11725.243     76.280     94.893     89.368
  4.639924  10510.019  11558.328  11634.607  11729.516     76.279     94.910     89.359
  4.641672  10509.971  11562.590  11638.868  11733.794     76.278     94.926     89.349
  4.643422  10509.929  11566.857  11643.134  11738.076     76.277     94.942     89.339
  4.645172  10509.894  11571.129  11647.405  11742.364     76.276     94.959     89.330
  4.646923  10509.865  11575.405  11651.680  11746.656     76.276     94.975     89.320
  4.648675  10509.842  11579.685  11655.960  11750.953     76.275     94.992     89.311
  4.650427  10509.825  11583.970  11660.245  11755.254     76.275     95.009     89.302
  4.652180  10509.814  11588.260  11664.535  11759.561     76.275     95.026     89.293
  4.653934  10509.810  11592.554  11668.829  11763.872     76.275     95.043     89.283
  4.655689  10509.812  11596.852  11673.127  11768.188     76.275     95.061     89.274
  4.657445  10509.820  11601.155  11677.431  11772.509     76.275     95.078     89.266
  4.659201  10509.834  11605.463  11681.739  11776.834     76.276     95.096     89.257
  4.660958  10509.854  11609.775  11686.051  11781.165     76.277     95.113     89.248
  4.662716  10509.880  11614.091  11690.369  11785.500     76.278     95.131     89.239
  4.664475  10509.913  11618.412  11694.691  11789.840     76.279     95.149     89.231
  4.666234  10509.951  11622.737  11699.017  11794.184     76.280     95.167     89.222
  4.667994  10509.996  11627.067  11703.348  11798.533     76.281     95.185     89.214
  4.669755  10510.047  11631.401  11707.684  11802.887     76.283     95.203     89.206
  4.671517  10510.104  11635.740  11712.024  11807.246     76.284     95.222     89.197
  4.673280  10510.167  11640.083  11716.369  11811.610     76.286     95.240     89.189
  4.675043  10510.237  11644.431  11720.719  11815.978     76.288     95.259     89.181
  4.676808  10510.312  11648.783  11725.073  11820.351     76.290     95.278     89.173
  4.678573  10510.393  11653.139  11729.432  11824.729     76.293     95.297     89.165
  4.680338  10510.481  11657.500  11733.795  11829.111     76.295     95.316     89.158
  4.682105  10510.575  11661.865  11738.163  11833.498     76.298     95.335     89.150
  4.683873  10510.674  11666.235  11742.536  11837.890     76.301     95.354     89.142
  4.685641  10510.780  11670.609  11746.913  11842.287     76.304     95.374     89.135
  4.687410  10510.892  11674.987  11751.294  11846.688     76.307     95.393     89.127
  4.689180  10511.010  11679.370  11755.680  11851.094     76.310     95.413     89.120
  4.690951  10511.134  11683.758  11760.071  11855.504     76.314     95.433     89.113
  4.692723  10511.264  11688.149  11764.467  11859.920     76.317     95.453     89.106
  4.694495  10511.400  11692.545  11768.866  11864.339     76.321     95.473     89.098
  4.696269  10511.542  11696.946  11773.271  11868.764     76.325     95.493     89.091
  4.698043  10511.690  11701.351  11777.680  11873.193     76.329     95.514     89.085
  4.699818  10511.844  11705.760  11782.093  11877.627     76.333     95.534     89.078
  4.701594  10512.004  11710.173  11786.511  11882.066     76.338     95.555     89.071
  4.703371  10512.170  11714.591  11790.934  11886.509     76.343     95.576     89.064
  4.705149  10512.343  11719.014  11795.361  11890.957     76.347     95.596     89.058
  4.706928  10512.521  11723.440  11799.793  11895.410     76.352     95.617     89.051
  4.708707  10512.705  11727.871  11804.229  11899.867     76.358     95.639     89.045
  4.710488  10512.895  11732.307  11808.669  11904.329     76.363     95.660     89.038
  4.712269  10513.091  11736.746  11813.115  11908.796     76.368     95.681     89.032
  4.714051  10513.294  11741.190  11817.564  11913.267     76.374     95.703     89.026
  4.715834  10513.502  11745.639  11822.018  11917.743     76.380     95.724     89.020
  4.717618  10513.716  11750.091  11826.477  11922.223     76.386     95.746     89.014
  4.719403  10513.936  11754.548  11830.940  11926.708     76.392     95.768     89.008
  4.721189  10514.162  11759.010  11835.408  11931.198     76.398     95.790     89.002
  4.722975  10514.394  11763.475  11839.880  11935.692     76.405     95.812     88.997
  4.724763  10514.632  11767.945  11844.357  11940.191     76.411     95.835     88.991
  4.726552  10514.876  11772.420  11848.838  11944.695     76.418     95.857     88.985
  4.728341  10515.126  11776.898  11853.323  11949.203     76.425     95.880     88.980
  4.730131  10515.382  11781.381  11857.814  11953.716     76.432     95.902     88.974
  4.731923  10515.643  11785.868  11862.308  11958.233     76.440     95.925     88.969
  4.733715  10515.911  11790.360  11866.807  11962.755     76.447     95.948     88.964
  4.735508  10516.185  11794.856  11871.311  11967.282     76.455     95.971     88.959
  4.737302  10516.464  11799.356  11875.818  11971.813     76.463     95.995     88.954
  4.739097  10516.750  11803.860  11880.331  11976.349     76.471     96.018     88.949
  4.740894  10517.041  11808.369  11884.848  11980.889     76.479     96.042     88.944
  4.742691  10517.338  11812.881  11889.369  11985.434     76.487     96.065     88.939
  4.744489  10517.642  11817.399  11893.895  11989.984     76.496     96.089     88.934
  4.746287  10517.951  11821.920  11898.425  11994.538     76.505     96.113     88.930
  4.748087  10518.266  11826.446  11902.959  11999.096     76.514     96.137     88.925
  4.749888  10518.587  11830.976  11907.498  12003.660     76.523     96.161     88.921
  4.751690  10518.914  11835.510  11912.042  12008.227     76.532     96.186     88.916
  4.753493  10519.246  11840.048  11916.590  12012.800     76.541     96.210     88.912
  4.755297  10519.585  11844.591  11921.142  12017.377     76.551     96.235     88.908
  4.757102  10519.929  11849.138  11925.699  12021.958     76.561     96.259     88.903
  4.758907  10520.280  11853.689  11930.260  12026.544     76.571     96.284     88.899
  4.760714  10520.636  11858.245  11934.826  12031.135     76.581     96.309     88.895
  4.762522  10520.998  11862.804  11939.396  12035.730     76.591     96.334     88.891
  4.764331  10521.366  11867.368  11943.970  12040.330     76.602     96.360     88.888
  4.766141  10521.740  11871.936  11948.549  12044.934     76.612     96.385     88.884
  4.767952  10522.120  11876.509  11953.132  12049.542     76.623     96.411     88.880
  4.769764  10522.506  11881.085  11957.719  12054.156     76.634     96.436     88.877
  4.771576  10522.897  11885.666  11962.311  12058.773     76.645     96.462     88.873
  4.773390  10523.294  11890.251  11966.908  12063.396     76.657     96.488     88.870
  4.775205  10523.698  11894.840  11971.508  12068.023     76.668     96.514     88.866
  4.777021  10524.107  11899.434  11976.114  12072.654     76.680     96.540     88.863
  4.778838  10524.522  11904.031  11980.723  12077.290     76.692     96.567     88.860
  4.780656  10524.942  11908.633  11985.337  12081.930     76.704     96.593     88.857
  4.782476  10525.369  11913.239  11989.955  12086.575     76.716     96.620     88.854
  4.784296  10525.801  11917.849  11994.578  12091.225     76.729     96.647     88.851
  4.786117  10526.240  11922.463  11999.205  12095.878     76.741     96.674     88.848
  4.787939  10526.684  11927.082  12003.836  12100.537     76.754     96.701     88.845
  4.789763  10527.134  11931.705  12008.472  12105.200     76.767     96.728     88.842
  4.791587  10527.590  11936.332  12013.112  12109.867     76.780     96.755     88.840
  4.793413  10528.051  11940.963  12017.756  12114.539     76.793     96.783     88.837
  4.795239  10528.519  11945.598  12022.405  12119.215     76.807     96.811     88.835
  4.797067  10528.992  11950.237  12027.058  12123.896     76.821     96.838     88.832
  4.798896  10529.471  11954.881  12031.715  12128.582     76.834     96.866     88.830
  4.800726  10529.956  11959.529  12036.377  12133.271     76.849     96.894     88.828
  4.802557  10530.447  11964.180  12041.043  12137.966     76.863     96.923     88.826
  4.804389  10530.943  11968.836  12045.714  12142.665     76.877     96.951     88.824
  4.806222  10531.446  11973.497  12050.388  12147.368     76.892     96.979     88.822
  4.808057  10531.954  11978.161  12055.068  12152.076     76.907     97.008     88.820
  4.809892  10532.468  11982.829  12059.751  12156.788     76.922     97.037     88.818
  4.811729  10532.988  11987.502  12064.439  12161.504     76.937     97.066     88.816
  4.813566  10533.514  11992.179  12069.131  12166.225     76.952     97.095     88.815
  4.815405  10534.045  11996.859  12073.827  12170.951     76.968     97.124     88.813
  4.817245  10534.582  12001.544  12078.528  12175.681     76.983     97.153     88.812
  4.819086  10535.125  12006.234  12083.233  12180.415     76.999     97.183     88.810
  4.820928  10535.674  12010.927  12087.942  12185.154     77.015     97.212     88.809
  4.822772  10536.229  12015.624  12092.656  12189.898     77.032     97.242     88.808
  4.824616  10536.789  12020.326  12097.374  12194.646     77.048     97.272     88.806
  4.826462  10537.356  12025.031  12102.096  12199.398     77.065     97.302     88.805
  4.828309  10537.928  12029.741  12106.822  12204.154     77.082     97.332     88.804
  4.830157  10538.506  12034.454  12111.553  12208.916     77.099     97.363     88.803
  4.832006  10539.089  12039.172  12116.288  12213.681     77.116     97.393     88.802
  4.833856  10539.679  12043.894  12121.027  12218.451     77.133     97.424     88.802
  4.835708  10540.274  12048.620  12125.771  12223.225     77.151     97.454     88.801
  4.837561  10540.875  12053.350  12130.519  12228.004     77.168     97.485     88.800
  4.839415  10541.482  12058.085  12135.271  12232.788     77.186     97.516     88.800
  4.841270  10542.095  12062.823  12140.028  12237.575     77.205     97.548     88.799
  4.843126  10542.713  12067.565  12144.788  12242.367     77.223     97.579     88.799
  4.844984  10543.338  12072.312  12149.553  12247.164     77.241     97.611     88.799
  4.846842  10543.968  12077.062  12154.322  12251.965     77.260     97.642     88.798
  4.848702  10544.604  12081.817  12159.096  12256.770     77.279     97.674     88.798
  4.850564  10545.245  12086.576  12163.874  12261.580     77.298     97.706     88.798
  4.852426  10545.893  12091.338  12168.656  12266.394     77.317     97.738     88.798
  4.854290  10546.546  12096.105  12173.442  12271.212     77.337     97.770     88.798
  4.856154  10547.205  12100.876  12178.233  12276.035     77.357     97.803     88.798
  4.858021  10547.870  12105.651  12183.027  12280.862     77.376     97.835     88.798
  4.859888  10548.540  12110.430  12187.826  12285.694     77.396     97.868     88.799
  4.861756  10549.217  12115.213  12192.630  12290.530     77.417     97.901     88.799
  4.863626  10549.899  12120.000  12197.437  12295.371     77.437     97.934     88.800
  4.865497  10550.587  12124.791  12202.249  12300.215     77.458     97.967     88.800
  4.867370  10551.281  12129.586  12207.065  12305.065     77.479     98.000     88.801
  4.869243  10551.980  12134.385  12211.885  12309.918     77.500     98.033     88.801
  4.871118  10552.686  12139.188  12216.709  12314.776     77.521     98.067     88.802
  4.872994  10553.397  12143.996  12221.538  12319.639     77.542     98.101     88.803
  4.874872  10554.114  12148.807  12226.371  12324.505     77.564     98.135     88.804
  4.876751  10554.837  12153.622  12231.208  12329.376     77.586     98.169     88.805
  4.878631  10555.565  12158.441  12236.049  12334.252     77.608     98.203     88.806
  4.880512  10556.300  12163.265  12240.895  12339.132     77.630     98.237     88.807
  4.882395  10557.040  12168.092  12245.744  12344.016     77.652     98.272     88.808
  4.884279  10557.786  12172.923  12250.598  12348.904     77.675     98.306     88.810
  4.886164  10558.537  12177.759  12255.456  12353.797     77.698     98.341     88.811
  4.888051  10559.295  12182.598  12260.319  12358.694     77.721     98.376     88.813
  4.889938  10560.058  12187.441  12265.185  12363.596     77.744     98.411     88.814
  4.891828  10560.827  12192.289  12270.056  12368.502     77.767     98.446     88.816
  4.893718  10561.602  12197.140  12274.931  12373.412     77.791     98.481     88.817
  4.895610  10562.383  12201.995  12279.810  12378.327     77.815     98.517     88.819
  4.897503  10563.170  12206.854  12284.693  12383.246     77.839     98.553     88.821
  4.899398  10563.962  12211.718  12289.580  12388.169     77.863     98.589     88.823
  4.901294  10564.760  12216.585  12294.472  12393.097     77.887     98.625     88.825
  4.903191  10565.564  12221.456  12299.368  12398.029     77.912     98.661     88.827
  4.905090  10566.374  12226.331  12304.268  12402.965     77.936     98.697     88.829
  4.906990  10567.190  12231.211  12309.172  12407.905     77.961     98.733     88.831
  4.908891  10568.011  12236.094  12314.080  12412.850     77.987     98.770     88.834
  4.910794  10568.838  12240.981  12318.993  12417.800     78.012     98.807     88.836
  4.912698  10569.671  12245.872  12323.909  12422.753     78.038     98.844     88.838
  4.914604  10570.510  12250.767  12328.830  12427.711     78.063     98.881     88.841
  4.916511  10571.355  12255.666  12333.755  12432.673     78.089     98.918     88.843
  4.918419  10572.206  12260.569  12338.684  12437.640     78.116     98.955     88.846
  4.920329  10573.062  12265.476  12343.618  12442.610     78.142     98.993     88.849
  4.922240  10573.924  12270.386  12348.555  12447.585     78.169     99.031     88.852
  4.924153  10574.792  12275.301  12353.497  12452.565     78.195     99.068     88.855
  4.926067  10575.666  12280.220  12358.442  12457.549     78.222     99.106     88.858
  4.927982  10576.546  12285.142  12363.392  12462.537     78.250     99.145     88.861
  4.929899  10577.431  12290.069  12368.346  12467.529     78.277     99.183     88.864
  4.931817  10578.323  12294.999  12373.304  12472.525     78.305     99.221     88.867
  4.933737  10579.220  12299.934  12378.266  12477.526     78.333     99.260     88.870
  4.935658  10580.123  12304.872  12383.233  12482.532     78.361     99.299     88.874
  4.937581  10581.032  12309.814  12388.203  12487.541     78.389     99.338     88.877
  4.939505  10581.946  12314.761  12393.178  12492.555     78.417     99.377     88.880
  4.941430  10582.867  12319.711  12398.157  12497.573     78.446     99.416     88.884
  4.943357  10583.794  12324.665  12403.140  12502.595     78.475     99.455     88.888
  4.945286  10584.726  12329.623  12408.127  12507.622     78.504     99.495     88.891
  4.947216  10585.664  12334.584  12413.118  12512.652     78.533     99.535     88.895
  4.949147  10586.608  12339.550  12418.113  12517.687     78.563     99.575     88.899
  4.951080  10587.558  12344.520  12423.112  12522.727     78.592     99.615     88.903
  4.953015  10588.514  12349.493  12428.116  12527.770     78.622     99.655     88.907
  4.954951  10589.475  12354.471  12433.123  12532.818     78.653     99.695     88.911
  4.956888  10590.443  12359.452  12438.135  12537.870     78.683     99.736     88.915
  4.958827  10591.416  12364.437  12443.150  12542.927     78.713     99.776     88.919
  4.960768  10592.396  12369.426  12448.170  12547.988     78.744     99.817     88.924
  4.962710  10593.381  12374.419  12453.194  12553.052     78.775     99.858     88.928
  4.964653  10594.372  12379.416  12458.222  12558.122     78.806     99.900     88.933
  4.966598  10595.369  12384.416  12463.254  12563.195     78.838     99.941     88.937
  4.968545  10596.372  12389.421  12468.290  12568.273     78.869     99.982     88.942
  4.970493  10597.381  12394.429  12473.330  12573.354     78.901    100.024     88.946
  4.972443  10598.395  12399.441  12478.375  12578.441     78.933    100.066     88.951
  4.974394  10599.416  12404.457  12483.423  12583.531     78.966    100.108     88.956
  4.976347  10600.442  12409.477  12488.476  12588.625     78.998    100.150     88.961
  4.978302  10601.475  12414.501  12493.532  12593.724     79.031    100.192     88.966
  4.980258  10602.513  12419.529  12498.593  12598.827     79.064    100.235     88.971
  4.982215  10603.558  12424.560  12503.657  12603.935     79.097    100.277     88.976
  4.984174  10604.608  12429.596  12508.726  12609.046     79.130    100.320     88.981
  4.986135  10605.664  12434.635  12513.799  12614.162     79.164    100.363     88.986
  4.988098  10606.726  12439.678  12518.875  12619.282     79.198    100.406     88.992
  4.990061  10607.794  12444.725  12523.956  12624.406     79.232    100.450     88.997
  4.992027  10608.868  12449.775  12529.041  12629.534     79.266    100.493     89.003
  4.993994  10609.948  12454.830  12534.130  12634.667     79.300    100.537     89.008
  4.995963  10611.034  12459.888  12539.223  12639.803     79.335    100.581     89.014
  4.997934  10612.126  12464.950  12544.320  12644.944     79.370    100.624     89.020
  4.999906  10613.224  12470.016  12549.421  12650.090     79.405    100.669     89.025
  5.001879  10614.327  12475.086  12554.526  12655.239     79.440    100.713     89.031
  5.003855  10615.437  12480.159  12559.635  12660.392     79.476    100.757     89.037
  5.005832  10616.553  12485.237  12564.748  12665.550     79.512    100.802     89.043
  5.007811  10617.675  12490.318  12569.865  12670.712     79.548    100.847     89.049
  5.009791  10618.803  12495.403  12574.986  12675.878     79.584    100.892     89.055
  5.011773  10619.936  12500.491  12580.111  12681.048     79.620    100.937     89.062
  5.013757  10621.076  12505.584  12585.241  12686.223     79.657    100.982     89.068
  5.015742  10622.222  12510.680  12590.374  12691.402     79.694    101.028     89.074
  5.017729  10623.374  12515.780  12595.511  12696.584     79.731    101.073     89.081
  5.019718  10624.531  12520.884  12600.652  12701.771     79.768    101.119     89.087
  5.021709  10625.695  12525.992  12605.797  12706.962     79.806    101.165     89.094
  5.023701  10626.865  12531.103  12610.946  12712.158     79.843    101.211     89.100
  5.025695  10628.041  12536.218  12616.100  12717.357     79.882    101.258     89.107
  5.027691  10629.223  12541.337  12621.257  12722.561     79.920    101.304     89.114
  5.029688  10630.411  12546.460  12626.418  12727.769     79.958    101.351     89.121
  5.031687  10631.605  12551.586  12631.583  12732.981     79.997    101.398     89.128
  5.033688  10632.805  12556.716  12636.752  12738.197     80.036    101.445     89.135
  5.035691  10634.011  12561.850  12641.925  12743.417     80.075    101.492     89.142
  5.037695  10635.224  12566.988  12647.102  12748.641     80.114    101.539     89.149
  5.039701  10636.442  12572.129  12652.283  12753.870     80.154    101.587     89.156
  5.041709  10637.667  12577.274  12657.468  12759.102     80.194    101.634     89.164
  5.043719  10638.897  12582.423  12662.657  12764.339     80.234    101.682     89.171
  5.045730  10640.134  12587.576  12667.850  12769.580     80.274    101.730     89.178
  5.047743  10641.377  12592.732  12673.047  12774.825     80.315    101.778     89.186
  5.049758  10642.625  12597.892  12678.248  12780.074     80.355    101.827     89.194
  5.051775  10643.880  12603.056  12683.452  12785.328     80.396    101.875     89.201
  5.053794  10645.141  12608.223  12688.661  12790.585     80.438    101.924     89.209
  5.055814  10646.409  12613.395  12693.874  12795.847     80.479    101.973     89.217
  5.057837  10647.682  12618.569  12699.090  12801.112     80.521    102.022     89.225
  5.059861  10648.962  12623.748  12704.311  12806.382     80.563    102.071     89.233
  5.061887  10650.247  12628.930  12709.535  12811.656     80.605    102.121     89.241
  5.063914  10651.539  12634.116  12714.764  12816.934     80.647    102.170     89.249
  5.065944  10652.837  12639.306  12719.996  12822.216     80.690    102.220     89.257
  5.067976  10654.142  12644.499  12725.232  12827.502     80.733    102.270     89.265
  5.070009  10655.452  12649.696  12730.472  12832.792     80.776    102.320     89.273
  5.072044  10656.769  12654.897  12735.716  12838.087     80.819    102.371     89.282
  5.074081  10658.091  12660.101  12740.964  12843.385     80.863    102.421     89.290
  5.076120  10659.420  12665.309  12746.216  12848.688     80.907    102.472     89.299
  5.078161  10660.756  12670.521  12751.472  12853.994     80.951    102.523     89.307
  5.080204  10662.097  12675.737  12756.732  12859.305     80.995    102.574     89.316
  5.082248  10663.445  12680.956  12761.995  12864.620     81.040    102.625     89.325
  5.084295  10664.799  12686.178  12767.263  12869.939     81.084    102.676     89.334
  5.086343  10666.159  12691.405  12772.534  12875.262     81.129    102.728     89.342
  5.088394  10667.526  12696.635  12777.809  12880.589     81.175    102.779     89.351
  5.090446  10668.898  12701.868  12783.088  12885.920     81.220    102.831     89.360
  5.092500  10670.277  12707.105  12788.371  12891.255     81.266    102.883     89.370
  5.094557  10671.663  12712.346  12793.658  12896.594     81.312    102.936     89.379
  5.096615  10673.054  12717.591  12798.949  12901.937     81.358    102.988     89.388
  5.098675  10674.452  12722.839  12804.243  12907.284     81.404    103.041     89.397
  5.100737  10675.856  12728.091  12809.542  12912.635     81.451    103.094     89.407
  5.102801  10677.267  12733.346  12814.844  12917.991     81.498    103.147     89.416
  5.104867  10678.684  12738.605  12820.150  12923.350     81.545    103.200     89.426
  5.106935  10680.107  12743.868  12825.460  12928.713     81.593    103.253     89.435
  5.109005  10681.536  12749.134  12830.774  12934.081     81.640    103.307     89.445
  5.111077  10682.972  12754.403  12836.092  12939.452     81.688    103.360     89.455
  5.113151  10684.414  12759.677  12841.413  12944.828     81.736    103.414     89.464
  5.115227  10685.863  12764.954  12846.739  12950.207     81.785    103.468     89.474
  5.117305  10687.318  12770.234  12852.068  12955.591     81.834    103.523     89.484
  5.119385  10688.780  12775.518  12857.401  12960.978     81.882    103.577     89.494
  5.121468  10690.247  12780.806  12862.738  12966.370     81.932    103.632     89.504
  5.123552  10691.722  12786.097  12868.078  12971.765     81.981    103.687     89.515
  5.125638  10693.202  12791.392  12873.423  12977.165     82.031    103.742     89.525
  5.127726  10694.689  12796.690  12878.771  12982.568     82.081    103.797     89.535
  5.129817  10696.183  12801.992  12884.123  12987.975     82.131    103.852     89.545
  5.131909  10697.683  12807.298  12889.479  12993.387     82.181    103.908     89.556
  5.134004  10699.189  12812.607  12894.839  12998.802     82.232    103.964     89.566
  5.136100  10700.702  12817.919  12900.202  13004.222     82.283    104.020     89.577
  5.138199  10702.222  12823.235  12905.569  13009.645     82.334    104.076     89.588
  5.140300  10703.747  12828.555  12910.940  13015.073     82.385    104.132     89.598
  5.142403  10705.280  12833.878  12916.315  13020.504     82.437    104.189     89.609
  5.144508  10706.819  12839.205  12921.694  13025.939     82.489    104.245     89.620
  5.146615  10708.364  12844.535  12927.076  13031.378     82.541    104.302     89.631
  5.148724  10709.916  12849.869  12932.462  13036.822     82.594    104.359     89.642
  5.150836  10711.475  12855.206  12937.852  13042.269     82.646    104.416     89.653
  5.152950  10713.040  12860.547  12943.246  13047.720     82.699    104.474     89.664
  5.155065  10714.612  12865.891  12948.643  13053.175     82.753    104.532     89.676
  5.157183  10716.190  12871.238  12954.044  13058.634     82.806    104.589     89.687
  5.159303  10717.775  12876.590  12959.449  13064.097     82.860    104.647     89.698
  5.161426  10719.366  12881.944  12964.858  13069.563     82.914    104.706     89.710
  5.163550  10720.964  12887.302  12970.270  13075.034     82.968    104.764     89.721
  5.165677  10722.569  12892.664  12975.686  13080.509     83.022    104.823     89.733
  5.167806  10724.180  12898.029  12981.106  13085.987     83.077    104.881     89.744
  5.169937  10725.798  12903.397  12986.530  13091.470     83.132    104.940     89.756
  5.172071  10727.423  12908.769  12991.957  13096.956     83.188    105.000     89.768
  5.174206  10729.054  12914.145  12997.388  13102.447     83.243    105.059     89.780
  5.176344  10730.692  12919.523  13002.822  13107.941     83.299    105.118     89.792
  5.178484  10732.337  12924.906  13008.261  13113.439     83.355    105.178     89.804
  5.180627  10733.988  12930.291  13013.703  13118.941     83.411    105.238     89.816
  5.182771  10735.647  12935.681  13019.148  13124.447     83.468    105.298     89.828
  5.184918  10737.311  12941.073  13024.598  13129.956     83.525    105.359     89.840
  5.187067  10738.983  12946.469  13030.051  13135.470     83.582    105.419     89.853
  5.189219  10740.661  12951.868  13035.508  13140.987     83.639    105.480     89.865
  5.191373  10742.347  12957.271  13040.968  13146.509     83.697    105.541     89.877
  5.193529  10744.039  12962.677  13046.432  13152.034     83.755    105.602     89.890
  5.195687  10745.737  12968.087  13051.900  13157.563     83.813    105.663     89.902
  5.197848  10747.443  12973.500  13057.371  13163.096     83.871    105.725     89.915
  5.200011  10749.155  12978.916  13062.846  13168.633     83.930    105.786     89.928
  5.202177  10750.875  12984.336  13068.325  13174.173     83.989    105.848     89.941
  5.204344  10752.601  12989.759  13073.807  13179.718     84.048    105.910     89.954
  5.206515  10754.334  12995.185  13079.293  13185.266     84.108    105.973     89.966
  5.208687  10756.074  13000.615  13084.783  13190.818     84.168    106.035     89.979
  5.210862  10757.820  13006.048  13090.276  13196.374     84.228    106.098     89.993
  5.213039  10759.574  13011.484  13095.773  13201.933     84.288    106.161     90.006
  5.215219  10761.335  13016.924  13101.273  13207.497     84.349    106.224     90.019
  5.217401  10763.102  13022.367  13106.777  13213.064     84.410    106.287     90.032
  5.219586  10764.877  13027.814  13112.285  13218.635     84.471    106.351     90.046
  5.221773  10766.658  13033.264  13117.796  13224.210     84.532    106.414     90.059
  5.223962  10768.446  13038.717  13123.311  13229.789     84.594    106.478     90.072
  5.226154  10770.242  13044.173  13128.829  13235.371     84.656    106.542     90.086
  5.228348  10772.044  13049.633  13134.351  13240.957     84.718    106.607     90.100
  5.230545  10773.854  13055.096  13139.876  13246.547     84.781    106.671     90.113
  5.232744  10775.670  13060.562  13145.405  13252.141     84.844    106.736     90.127
  5.234946  10777.494  13066.031  13150.938  13257.739     84.907    106.801     90.141
  5.237150  10779.324  13071.504  13156.474  13263.340     84.970    106.866     90.155
  5.239357  10781.162  13076.980  13162.014  13268.945     85.034    106.931     90.169
  5.241566  10783.007  13082.460  13167.557  13274.554     85.098    106.997     90.183
  5.243778  10784.859  13087.942  13173.104  13280.166     85.162    107.062     90.197
  5.245992  10786.718  13093.428  13178.654  13285.782     85.226    107.128     90.211
  5.248209  10788.584  13098.917  13184.208  13291.402     85.291    107.194     90.226
  5.250428  10790.457  13104.409  13189.765  13297.026     85.356    107.261     90.240
  5.252650  10792.338  13109.905  13195.326  13302.653     85.421    107.327     90.254
  5.254874  10794.226  13115.403  13200.891  13308.284     85.487    107.394     90.269
  5.257101  10796.120  13120.905  13206.458  13313.919     85.553    107.461     90.284
  5.259331  10798.023  13126.411  13212.030  13319.558     85.619    107.528     90.298
  5.261563  10799.932  13131.919  13217.604  13325.200     85.686    107.595     90.313
  5.263798  10801.849  13137.430  13223.183  13330.846     85.752    107.663     90.328
  5.266035  10803.773  13142.945  13228.764  13336.495     85.819    107.731     90.342
  5.268275  10805.704  13148.463  13234.350  13342.148     85.887    107.799     90.357
  5.270518  10807.642  13153.984  13239.938  13347.805     85.954    107.867     90.372
  5.272763  10809.588  13159.508  13245.530  13353.465     86.022    107.935     90.387
  5.275011  10811.541  13165.036  13251.126  13359.130     86.090    108.004     90.403
  5.277262  10813.502  13170.566  13256.725  13364.797     86.159    108.072     90.418
  5.279515  10815.470  13176.100  13262.327  13370.469     86.228    108.141     90.433
  5.281771  10817.445  13181.637  13267.933  13376.144     86.297    108.211     90.448
  5.284030  10819.428  13187.176  13273.542  13381.822     86.366    108.280     90.464
  5.286291  10821.418  13192.719  13279.155  13387.505     86.436    108.350     90.479
  5.288555  10823.415  13198.266  13284.771  13393.191     86.505    108.420     90.495
  5.290822  10825.420  13203.815  13290.390  13398.880     86.576    108.490     90.511
  5.293092  10827.433  13209.367  13296.013  13404.573     86.646    108.560     90.526
  5.295364  10829.453  13214.922  13301.639  13410.270     86.717    108.630     90.542
  5.297639  10831.480  13220.481  13307.269  13415.970     86.788    108.701     90.558
  5.299917  10833.515  13226.042  13312.902  13421.674     86.859    108.772     90.574
  5.302198  10835.558  13231.607  13318.538  13427.381     86.931    108.843     90.590
  5.304481  10837.608  13237.175  13324.178  13433.092     87.003    108.915     90.606
  5.306767  10839.666  13242.745  13329.821  13438.807     87.075    108.986     90.622
  5.309056  10841.731  13248.319  13335.467  13444.525     87.148    109.058     90.638
  5.311348  10843.804  13253.896  13341.117  13450.246     87.221    109.130     90.655
  5.313643  10845.885  13259.476  13346.769  13455.971     87.294    109.202     90.671
  5.315940  10847.973  13265.058  13352.426  13461.700     87.367    109.274     90.687
  5.318240  10850.069  13270.644  13358.085  13467.432     87.441    109.347     90.704
  5.320544  10852.173  13276.233  13363.748  13473.168     87.515    109.420     90.720
  5.322850  10854.285  13281.825  13369.414  13478.907     87.589    109.493     90.737
  5.325159  10856.404  13287.419  13375.083  13484.650     87.664    109.566     90.754
  5.327470  10858.531  13293.017  13380.756  13490.396     87.739    109.640     90.771
  5.329785  10860.666  13298.618  13386.432  13496.145     87.814    109.713     90.787
  5.332103  10862.808  13304.221  13392.111  13501.899     87.890    109.787     90.804
  5.334423  10864.958  13309.828  13397.794  13507.655     87.966    109.861     90.821
  5.336747  10867.117  13315.437  13403.479  13513.415     88.042    109.936     90.838
  5.339074  10869.283  13321.050  13409.168  13519.178     88.118    110.010     90.856
  5.341403  10871.457  13326.665  13414.860  13524.945     88.195    110.085     90.873
  5.343735  10873.639  13332.283  13420.555  13530.716     88.272    110.160     90.890
  5.346071  10875.828  13337.904  13426.254  13536.489     88.350    110.235     90.907
  5.348409  10878.026  13343.528  13431.956  13542.267     88.427    110.311     90.925
  5.350751  10880.232  13349.155  13437.660  13548.047     88.505    110.387     90.942
  5.353095  10882.445  13354.785  13443.369  13553.831     88.584    110.462     90.960
  5.355443  10884.667  13360.417  13449.080  13559.618     88.662    110.539     90.978
  5.357793  10886.897  13366.053  13454.794  13565.409     88.741    110.615     90.995
  5.360147  10889.135  13371.691  13460.512  13571.203     88.820    110.692     91.013
  5.362503  10891.381  13377.332  13466.232  13577.001     88.900    110.768     91.031
  5.364863  10893.635  13382.976  13471.956  13582.801     88.980    110.845     91.049
  5.367226  10895.897  13388.623  13477.683  13588.606     89.060    110.923     91.067
  5.369592  10898.167  13394.272  13483.413  13594.413     89.141    111.000     91.085
  5.371961  10900.445  13399.925  13489.146  13600.224     89.221    111.078     91.103
  5.374333  10902.732  13405.580  13494.882  13606.038     89.302    111.156     91.121
  5.376708  10905.027  13411.238  13500.622  13611.855     89.384    111.234     91.140
  5.379087  10907.330  13416.898  13506.364  13617.676     89.466    111.312     91.158
  5.381468  10909.641  13422.562  13512.109  13623.500     89.548    111.391     91.177
  5.383853  10911.961  13428.228  13517.858  13629.327     89.630    111.469     91.195
  5.386241  10914.289  13433.897  13523.609  13635.158     89.713    111.549     91.214
  5.388633  10916.625  13439.568  13529.364  13640.992     89.796    111.628     91.232
  5.391027  10918.969  13445.242  13535.122  13646.829     89.879    111.707     91.251
  5.393425  10921.322  13450.919  13540.882  13652.669     89.963    111.787     91.270
  5.395825  10923.684  13456.599  13546.646  13658.513     90.047    111.867     91.289
  5.398230  10926.053  13462.281  13552.412  13664.360     90.131    111.947     91.308
  5.400637  10928.431  13467.966  13558.182  13670.210     90.216    112.027     91.327
  5.403048  10930.818  13473.654  13563.955  13676.063     90.301    112.108     91.346
  5.405462  10933.213  13479.344  13569.730  13681.919     90.386    112.189     91.365
  5.407879  10935.617  13485.037  13575.509  13687.779     90.471    112.270     91.385
  5.410300  10938.029  13490.733  13581.290  13693.641     90.557    112.351     91.404
  5.412724  10940.450  13496.431  13587.074  13699.507     90.644    112.433     91.423
  5.415151  10942.879  13502.132  13592.862  13705.376     90.730    112.515     91.443
  5.417581  10945.317  13507.835  13598.652  13711.249     90.817    112.597     91.462
  5.420015  10947.764  13513.541  13604.445  13717.124     90.904    112.679     91.482
  5.422453  10950.219  13519.249  13610.241  13723.002     90.992    112.761     91.502
  5.424894  10952.683  13524.960  13616.040  13728.884     91.080    112.844     91.522
  5.427338  10955.156  13530.674  13621.842  13734.769     91.168    112.927     91.541
  5.429785  10957.638  13536.390  13627.646  13740.656     91.256    113.010     91.561
  5.432237  10960.128  13542.108  13633.454  13746.547     91.345    113.094     91.581
  5.434691  10962.627  13547.829  13639.264  13752.441     91.434    113.177     91.602
  5.437149  10965.135  13553.553  13645.077  13758.338     91.524    113.261     91.622
  5.439611  10967.652  13559.279  13650.893  13764.238     91.614    113.345     91.642
  5.442076  10970.177  13565.008  13656.712  13770.141     91.704    113.430     91.662
  5.444544  10972.712  13570.739  13662.533  13776.047     91.795    113.514     91.683
  5.447016  10975.255  13576.472  13668.358  13781.957     91.885    113.599     91.703
  5.449492  10977.808  13582.208  13674.185  13787.869     91.977    113.684     91.724
  5.451971  10980.369  13587.946  13680.014  13793.784     92.068    113.769     91.744
  5.454453  10982.940  13593.687  13685.847  13799.702     92.160    113.855     91.765
  5.456939  10985.519  13599.430  13691.682  13805.623     92.252    113.941     91.786
  5.459429  10988.108  13605.176  13697.520  13811.547     92.345    114.027     91.807
  5.461923  10990.705  13610.923  13703.361  13817.474     92.438    114.113     91.828
  5.464420  10993.312  13616.674  13709.204  13823.404     92.531    114.199     91.849
  5.466921  10995.928  13622.426  13715.050  13829.337     92.624    114.286     91.870
  5.469425  10998.553  13628.181  13720.899  13835.272     92.718    114.373     91.891
  5.471933  11001.188  13633.938  13726.751  13841.211     92.812    114.460     91.912
  5.474445  11003.831  13639.698  13732.605  13847.152     92.907    114.548     91.933
  5.476960  11006.484  13645.459  13738.461  13853.097     93.002    114.635     91.955
  5.479479  11009.147  13651.223  13744.321  13859.044     93.097    114.723     91.976
  5.482002  11011.818  13656.990  13750.183  13864.994     93.193    114.811     91.998
  5.484529  11014.499  13662.758  13756.047  13870.947     93.289    114.900     92.019
  5.487059  11017.189  13668.529  13761.914  13876.903     93.385    114.988     92.041
  5.489593  11019.889  13674.302  13767.784  13882.861     93.482    115.077     92.063
  5.492131  11022.598  13680.077  13773.656  13888.823     93.579    115.166     92.085
  5.494673  11025.317  13685.855  13779.531  13894.787     93.676    115.256     92.107
  5.497218  11028.045  13691.635  13785.408  13900.754     93.774    115.345     92.129
  5.499768  11030.783  13697.416  13791.288  13906.723     93.872    115.435     92.151
  5.502321  11033.530  13703.200  13797.170  13912.696     93.970    115.525     92.173
  5.504878  11036.287  13708.986  13803.055  13918.671     94.069    115.616     92.195
  5.507439  11039.054  13714.774  13808.942  13924.649     94.168    115.706     92.217
  5.510004  11041.830  13720.565  13814.832  13930.629     94.267    115.797     92.240
  5.512573  11044.616  13726.357  13820.724  13936.612     94.367    115.888     92.262
  5.515145  11047.412  13732.152  13826.619  13942.598     94.467    115.979     92.285
  5.517722  11050.217  13737.948  13832.516  13948.587     94.568    116.071     92.307
  5.520303  11053.032  13743.747  13838.415  13954.578     94.669    116.163     92.330
  5.522887  11055.858  13749.547  13844.317  13960.572     94.770    116.255     92.353
  5.525476  11058.692  13755.350  13850.221  13966.569     94.871    116.347     92.376
  5.528069  11061.537  13761.155  13856.128  13972.568     94.973    116.440     92.399
  5.530665  11064.392  13766.961  13862.037  13978.569     95.075    116.533     92.422
  5.533266  11067.257  13772.770  13867.948  13984.574     95.178    116.626     92.445
  5.535871  11070.132  13778.581  13873.862  13990.580     95.281    116.719     92.468
  5.538480  11073.017  13784.393  13879.777  13996.590     95.384    116.812     92.491
  5.541093  11075.911  13790.207  13885.695  14002.602     95.488    116.906     92.515
  5.543710  11078.817  13796.024  13891.616  14008.616     95.592    117.000     92.538
  5.546331  11081.732  13801.842  13897.539  14014.633     95.697    117.095     92.562
  5.548956  11084.657  13807.662  13903.463  14020.653     95.801    117.189     92.585
  5.551586  11087.592  13813.484  13909.391  14026.675     95.906    117.284     92.609
  5.554220  11090.538  13819.308  13915.320  14032.699     96.012    117.379     92.633
  5.556858  11093.494  13825.134  13921.251  14038.726     96.118    117.474     92.656
  5.559500  11096.461  13830.961  13927.185  14044.755     96.224    117.570     92.680
  5.562146  11099.437  13836.790  13933.121  14050.787     96.331    117.666     92.704
  5.564797  11102.425  13842.622  13939.059  14056.821     96.438    117.762     92.728
  5.567452  11105.422  13848.454  13944.999  14062.857     96.545    117.858     92.753
  5.570111  11108.430  13854.289  13950.942  14068.896     96.653    117.955     92.777
  5.572775  11111.449  13860.125  13956.886  14074.937     96.761    118.052     92.801
  5.575443  11114.478  13865.963  13962.832  14080.981     96.869    118.149     92.826
  5.578115  11117.517  13871.803  13968.781  14087.027     96.978    118.246     92.850
  5.580791  11120.567  13877.644  13974.731  14093.075     97.087    118.344     92.875
  5.583472  11123.628  13883.487  13980.684  14099.125     97.197    118.441     92.899
  5.586158  11126.700  13889.332  13986.639  14105.178     97.307    118.539     92.924
  5.588848  11129.782  13895.178  13992.595  14111.233     97.417    118.638     92.949
  5.591542  11132.875  13901.026  13998.554  14117.290     97.527    118.736     92.974
  5.594241  11135.979  13906.876  14004.514  14123.350     97.639    118.835     92.999
  5.596944  11139.093  13912.727  14010.477  14129.411     97.750    118.934     93.024
  5.599652  11142.219  13918.580  14016.441  14135.475     97.862    119.034     93.049
  5.602364  11145.355  13924.434  14022.408  14141.541     97.974    119.133     93.074
  5.605081  11148.503  13930.290  14028.376  14147.609     98.086    119.233     93.099
  5.607802  11151.661  13936.147  14034.346  14153.680     98.199    119.334     93.125
  5.610528  11154.831  13942.006  14040.318  14159.752     98.313    119.434     93.150
  5.613259  11158.011  13947.866  14046.292  14165.827     98.426    119.535     93.176
  5.615994  11161.203  13953.727  14052.268  14171.903     98.540    119.636     93.202
  5.618734  11164.405  13959.590  14058.245  14177.982     98.655    119.737     93.227
  5.621478  11167.619  13965.455  14064.224  14184.063     98.770    119.838     93.253
  5.624227  11170.845  13971.321  14070.205  14190.145     98.885    119.940     93.279
  5.626981  11174.081  13977.188  14076.188  14196.230     99.000    120.042     93.305
  5.629740  11177.329  13983.057  14082.173  14202.317     99.116    120.144     93.331
  5.632503  11180.588  13988.926  14088.159  14208.406     99.233    120.247     93.357
  5.635271  11183.859  13994.798  14094.147  14214.496     99.349    120.349     93.384
  5.638044  11187.141  14000.670  14100.137  14220.589     99.466    120.452     93.410
  5.640822  11190.434  14006.544  14106.128  14226.683     99.584    120.556     93.436
  5.643605  11193.739  14012.419  14112.121  14232.780     99.702    120.659     93.463
  5.646392  11197.056  14018.295  14118.115  14238.878     99.820    120.763     93.489
  5.649184  11200.384  14024.173  14124.111  14244.978     99.939    120.867     93.516
  5.651981  11203.724  14030.051  14130.109  14251.081    100.058    120.971     93.543
  5.654783  11207.075  14035.931  14136.108  14257.184    100.177    121.076     93.570
  5.657590  11210.439  14041.812  14142.109  14263.290    100.297    121.181     93.597
  5.660402  11213.814  14047.694  14148.111  14269.397    100.417    121.286     93.624
  5.663219  11217.201  14053.577  14154.115  14275.507    100.538    121.392     93.651
  5.666041  11220.600  14059.462  14160.120  14281.618    100.659    121.497     93.678
  5.668868  11224.011  14065.347  14166.127  14287.730    100.780    121.603     93.705
  5.671700  11227.433  14071.234  14172.135  14293.845    100.902    121.709     93.733
  5.674538  11230.868  14077.121  14178.145  14299.961    101.024    121.816     93.760
  5.677380  11234.315  14083.009  14184.156  14306.079    101.147    121.923     93.788
  5.680227  11237.774  14088.899  14190.168  14312.198    101.270    122.030     93.815
  5.683080  11241.245  14094.789  14196.182  14318.319    101.393    122.137     93.843
  5.685937  11244.728  14100.681  14202.197  14324.442    101.517    122.244     93.871
  5.688800  11248.224  14106.573  14208.214  14330.566    101.641    122.352     93.899
  5.691668  11251.732  14112.466  14214.231  14336.692    101.765    122.460     93.927
  5.694541  11255.252  14118.360  14220.250  14342.819    101.890    122.569     93.955
  5.697420  11258.784  14124.255  14226.271  14348.948    102.016    122.677     93.983
  5.700304  11262.330  14130.151  14232.292  14355.078    102.141    122.786     94.012
  5.703193  11265.887  14136.047  14238.315  14361.210    102.267    122.895     94.040
  5.706087  11269.457  14141.944  14244.339  14367.343    102.394    123.005     94.069
  5.708987  11273.040  14147.843  14250.364  14373.478    102.521    123.114     94.097
  5.711892  11276.635  14153.741  14256.390  14379.614    102.648    123.224     94.126
  5.714803  11280.243  14159.641  14262.417  14385.751    102.776    123.334     94.155
  5.717719  11283.864  14165.541  14268.445  14391.890    102.904    123.445     94.183
  5.720641  11287.497  14171.442  14274.475  14398.030    103.033    123.556     94.212
  5.723568  11291.144  14177.343  14280.505  14404.172    103.162    123.667     94.241
  5.726500  11294.803  14183.246  14286.537  14410.315    103.291    123.778     94.271
  5.729438  11298.475  14189.148  14292.569  14416.459    103.421    123.890     94.300
  5.732382  11302.160  14195.052  14298.603  14422.604    103.551    124.002     94.329
  5.735331  11305.859  14200.955  14304.637  14428.751    103.682    124.114     94.359
  5.738286  11309.570  14206.860  14310.672  14434.899    103.813    124.226     94.388
  5.741246  11313.294  14212.765  14316.709  14441.047    103.944    124.339     94.418
  5.744212  11317.032  14218.670  14322.746  14447.198    104.076    124.452     94.448
  5.747184  11320.783  14224.576  14328.784  14453.349    104.208    124.565     94.477
  5.750161  11324.547  14230.482  14334.823  14459.501    104.341    124.678     94.507
  5.753145  11328.325  14236.389  14340.862  14465.655    104.474    124.792     94.537
  5.756134  11332.116  14242.296  14346.903  14471.809    104.607    124.906     94.567
  5.759129  11335.920  14248.203  14352.944  14477.965    104.741    125.021     94.598
  5.762129  11339.739  14254.111  14358.986  14484.121    104.875    125.135     94.628
  5.765136  11343.570  14260.019  14365.029  14490.279    105.010    125.250     94.658
  5.768148  11347.415  14265.927  14371.072  14496.437    105.145    125.365     94.689
  5.771166  11351.274  14271.836  14377.116  14502.597    105.281    125.481     94.719
  5.774191  11355.147  14277.744  14383.161  14508.757    105.417    125.596     94.750
  5.777221  11359.033  14283.653  14389.206  14514.919    105.553    125.712     94.781
  5.780257  11362.934  14289.562  14395.252  14521.081    105.690    125.829     94.812
  5.783299  11366.848  14295.472  14401.299  14527.244    105.827    125.945     94.843
  5.786347  11370.776  14301.381  14407.346  14533.408    105.965    126.062     94.874
  5.789402  11374.718  14307.291  14413.393  14539.572    106.103    126.179     94.905
  5.792462  11378.675  14313.200  14419.441  14545.738    106.241    126.296     94.936
  5.795529  11382.645  14319.110  14425.490  14551.904    106.380    126.414     94.968
  5.798602  11386.630  14325.019  14431.539  14558.070    106.519    126.532     94.999
  5.801681  11390.629  14330.929  14437.588  14564.238    106.659    126.650     95.031
  5.804766  11394.642  14336.838  14443.638  14570.406    106.799    126.769     95.063
  5.807857  11398.670  14342.748  14449.688  14576.575    106.940    126.887     95.094
  5.810955  11402.712  14348.657  14455.738  14582.744    107.081    127.006     95.126
  5.814059  11406.769  14354.567  14461.789  14588.914    107.222    127.126     95.158
  5.817170  11410.840  14360.476  14467.839  14595.085    107.364    127.245     95.191
  5.820286  11414.926  14366.385  14473.891  14601.256    107.506    127.365     95.223
  5.823410  11419.026  14372.293  14479.942  14607.427    107.649    127.485     95.255
  5.826539  11423.141  14378.202  14485.994  14613.599    107.792    127.606     95.288
  5.829675  11427.272  14384.110  14492.045  14619.772    107.935    127.726     95.320
  5.832818  11431.416  14390.018  14498.097  14625.945    108.079    127.847     95.353
  5.835967  11435.576  14395.925  14504.149  14632.118    108.224    127.969     95.386
  5.839123  11439.751  14401.833  14510.201  14638.292    108.369    128.090     95.419
  5.842286  11443.941  14407.740  14516.253  14644.465    108.514    128.212     95.452
  5.845455  11448.146  14413.646  14522.305  14650.640    108.659    128.334     95.485
  5.848630  11452.367  14419.552  14528.358  14656.814    108.806    128.457     95.518
  5.851813  11456.602  14425.458  14534.410  14662.989    108.952    128.579     95.551
  5.855002  11460.853  14431.363  14540.462  14669.164    109.099    128.702     95.585
  5.858198  11465.119  14437.267  14546.514  14675.339    109.246    128.826     95.618
  5.861401  11469.401  14443.171  14552.565  14681.514    109.394    128.949     95.652
  5.864610  11473.698  14449.074  14558.617  14687.690    109.543    129.073     95.686
  5.867827  11478.011  14454.977  14564.668  14693.865    109.691    129.197     95.719
  5.871050  11482.339  14460.879  14570.720  14700.041    109.840    129.321     95.753
  5.874280  11486.684  14466.781  14576.770  14706.216    109.990    129.446     95.788
  5.877518  11491.044  14472.681  14582.821  14712.392    110.140    129.571     95.822
  5.880762  11495.420  14478.581  14588.872  14718.568    110.290    129.696     95.856
  5.884013  11499.811  14484.480  14594.922  14724.743    110.441    129.822     95.891
  5.887272  11504.219  14490.379  14600.971  14730.919    110.593    129.947     95.925
  5.890537  11508.643  14496.276  14607.020  14737.094    110.744    130.073     95.960
  5.893810  11513.083  14502.173  14613.069  14743.269    110.896    130.200     95.995
  5.897090  11517.539  14508.069  14619.118  14749.444    111.049    130.326     96.029
  5.900377  11522.012  14513.963  14625.166  14755.619    111.202    130.453     96.065
  5.903672  11526.501  14519.857  14631.213  14761.793    111.356    130.580     96.100
  5.906974  11531.006  14525.750  14637.260  14767.968    111.510    130.708     96.135
  5.910283  11535.528  14531.642  14643.306  14774.141    111.664    130.836     96.170
  5.913599  11540.066  14537.533  14649.351  14780.315    111.819    130.964     96.206
  5.916923  11544.621  14543.422  14655.396  14786.488    111.974    131.092     96.241
  5.920255  11549.193  14549.311  14661.441  14792.661    112.130    131.221     96.277
  5.923593  11553.781  14555.198  14667.484  14798.833    112.286    131.349     96.313
  5.926940  11558.387  14561.084  14673.527  14805.005    112.442    131.479     96.349
  5.930294  11563.009  14566.969  14679.569  14811.177    112.599    131.608     96.385
  5.933656  11567.648  14572.853  14685.610  14817.348    112.757    131.738     96.421
  5.937025  11572.305  14578.735  14691.650  14823.518    112.915    131.868     96.458
  5.940402  11576.978  14584.616  14697.690  14829.688    113.073    131.998     96.494
  5.943787  11581.669  14590.496  14703.728  14835.857    113.232    132.129     96.531
  5.947179  11586.377  14596.374  14709.765  14842.025    113.391    132.260     96.568
  5.950580  11591.103  14602.251  14715.802  14848.193    113.551    132.391     96.604
  5.953988  11595.846  14608.127  14721.838  14854.360    113.711    132.522     96.641
  5.957404  11600.607  14614.001  14727.872  14860.526    113.871    132.654     96.679
  5.960828  11605.385  14619.873  14733.905  14866.691    114.032    132.786     96.716
  5.964260  11610.181  14625.744  14739.937  14872.856    114.194    132.918     96.753
  5.967700  11614.995  14631.613  14745.969  14879.019    114.356    133.051     96.791
  5.971149  11619.826  14637.480  14751.998  14885.182    114.518    133.184     96.828
  5.974605  11624.676  14643.346  14758.027  14891.344    114.681    133.317     96.866
  5.978069  11629.544  14649.210  14764.054  14897.504    114.844    133.450     96.904
  5.981542  11634.430  14655.073  14770.080  14903.664    115.008    133.584     96.942
  5.985023  11639.334  14660.933  14776.105  14909.823    115.172    133.718     96.980
  5.988512  11644.256  14666.792  14782.128  14915.980    115.337    133.852     97.018
  5.992010  11649.197  14672.649  14788.150  14922.137    115.502    133.987     97.057
  5.995516  11654.156  14678.504  14794.171  14928.292    115.667    134.121     97.095
  5.999031  11659.133  14684.357  14800.190  14934.446    115.833    134.256     97.134
  6.002554  11664.130  14690.208  14806.207  14940.599    115.999    134.392     97.173
  6.006085  11669.145  14696.057  14812.223  14946.750    116.166    134.527     97.212
  6.009625  11674.179  14701.904  14818.237  14952.901    116.333    134.663     97.251
  6.013174  11679.232  14707.749  14824.250  14959.050    116.501    134.800     97.290
  6.016731  11684.303  14713.591  14830.261  14965.197    116.669    134.936     97.330
  6.020297  11689.394  14719.432  14836.270  14971.343    116.838    135.073     97.369
  6.023872  11694.504  14725.270  14842.277  14977.488    117.007    135.210     97.409
  6.027456  11699.633  14731.107  14848.283  14983.631    117.177    135.347     97.449
  6.031048  11704.782  14736.941  14854.287  14989.772    117.347    135.485     97.489
  6.034650  11709.950  14742.772  14860.289  14995.912    117.517    135.623     97.529
  6.038260  11715.137  14748.601  14866.289  15002.050    117.688    135.761     97.569
  6.041879  11720.345  14754.428  14872.287  15008.187    117.859    135.900     97.609
  6.045508  11725.571  14760.253  14878.283  15014.322    118.031    136.038     97.650
  6.049146  11730.818  14766.074  14884.278  15020.455    118.203    136.177     97.691
  6.052792  11736.085  14771.894  14890.270  15026.586    118.376    136.317     97.731
  6.056448  11741.371  14777.711  14896.260  15032.716    118.549    136.456     97.772
  6.060114  11746.678  14783.525  14902.247  15038.844    118.723    136.596     97.814
  6.063788  11752.004  14789.337  14908.233  15044.970    118.897    136.736     97.855
  6.067472  11757.351  14795.145  14914.217  15051.093    119.071    136.877     97.896
  6.071166  11762.719  14800.952  14920.198  15057.215    119.246    137.018     97.938
  6.074869  11768.107  14806.755  14926.177  15063.335    119.421    137.159     97.980
  6.078581  11773.515  14812.556  14932.153  15069.453    119.597    137.300     98.022
  6.082303  11778.944  14818.354  14938.127  15075.569    119.774    137.441     98.064
  6.086035  11784.394  14824.149  14944.099  15081.682    119.950    137.583     98.106
  6.089776  11789.865  14829.941  14950.068  15087.793    120.127    137.725     98.148
  6.093528  11795.356  14835.730  14956.035  15093.903    120.305    137.868     98.191
  6.097289  11800.869  14841.516  14961.999  15100.009    120.483    138.010     98.233
  6.101059  11806.403  14847.299  14967.961  15106.114    120.662    138.153     98.276
  6.104840  11811.958  14853.079  14973.919  15112.216    120.841    138.296     98.319
  6.108631  11817.535  14858.855  14979.876  15118.316    121.020    138.440     98.362
  6.112432  11823.133  14864.629  14985.829  15124.413    121.200    138.584     98.406
  6.116243  11828.752  14870.399  14991.780  15130.508    121.381    138.728     98.449
  6.120064  11834.393  14876.167  14997.728  15136.600    121.561    138.872     98.493
  6.123896  11840.056  14881.930  15003.673  15142.690    121.743    139.017     98.537
  6.127737  11845.741  14887.691  15009.615  15148.777    121.924    139.161     98.581
  6.131590  11851.448  14893.448  15015.554  15154.861    122.106    139.307     98.625
  6.135452  11857.177  14899.202  15021.491  15160.943    122.289    139.452     98.669
  6.139325  11862.928  14904.952  15027.424  15167.022    122.472    139.598     98.714
  6.143209  11868.702  14910.698  15033.354  15173.098    122.656    139.744     98.758
  6.147103  11874.498  14916.441  15039.281  15179.171    122.840    139.890     98.803
  6.151008  11880.316  14922.181  15045.205  15185.241    123.024    140.036     98.848
  6.154923  11886.157  14927.917  15051.126  15191.309    123.209    140.183     98.893
  6.158849  11892.021  14933.649  15057.043  15197.373    123.394    140.330     98.939
  6.162787  11897.908  14939.377  15062.957  15203.434    123.580    140.477     98.984
  6.166735  11903.818  14945.102  15068.868  15209.493    123.766    140.625     99.030
  6.170694  11909.751  14950.822  15074.775  15215.548    123.953    140.773     99.076
  6.174664  11915.707  14956.539  15080.679  15221.600    124.140    140.921     99.122
  6.178646  11921.686  14962.252  15086.580  15227.649    124.328    141.069     99.168
  6.182638  11927.689  14967.961  15092.477  15233.694    124.516    141.218     99.215
  6.186642  11933.716  14973.666  15098.370  15239.737    124.704    141.367     99.261
  6.190657  11939.766  14979.367  15104.260  15245.775    124.893    141.516     99.308
  6.194684  11945.840  14985.064  15110.146  15251.811    125.082    141.665     99.355
  6.198722  11951.938  14990.756  15116.028  15257.843    125.272    141.815     99.403
  6.202772  11958.060  14996.445  15121.907  15263.871    125.462    141.965     99.450
  6.206833  11964.206  15002.129  15127.782  15269.896    125.653    142.115     99.498
  6.210906  11970.376  15007.808  15133.652  15275.918    125.844    142.265     99.545
  6.214991  11976.571  15013.484  15139.519  15281.935    126.036    142.416     99.593
  6.219087  11982.790  15019.155  15145.382  15287.949    126.228    142.567     99.642
  6.223196  11989.034  15024.821  15151.241  15293.960    126.420    142.718     99.690
  6.227316  11995.303  15030.484  15157.096  15299.966    126.613    142.870     99.738
  6.231449  12001.597  15036.141  15162.947  15305.969    126.806    143.021     99.787
  6.235594  12007.916  15041.794  15168.794  15311.967    127.000    143.173     99.836
  6.239751  12014.259  15047.442  15174.637  15317.962    127.194    143.326     99.885
  6.243920  12020.629  15053.086  15180.475  15323.953    127.389    143.478     99.935
  6.248101  12027.023  15058.725  15186.309  15329.940    127.584    143.631     99.984
  6.252296  12033.443  15064.359  15192.138  15335.922    127.780    143.784    100.034
  6.256502  12039.889  15069.988  15197.964  15341.901    127.976    143.937    100.084
  6.260722  12046.361  15075.613  15203.784  15347.875    128.172    144.091    100.135
  6.264954  12052.858  15081.232  15209.601  15353.845    128.369    144.244    100.185
  6.269199  12059.382  15086.846  15215.412  15359.811    128.566    144.398    100.236
  6.273456  12065.932  15092.456  15221.220  15365.772    128.764    144.553    100.287
  6.277727  12072.508  15098.060  15227.022  15371.729    128.962    144.707    100.338
  6.282011  12079.111  15103.659  15232.820  15377.682    129.160    144.862    100.389
  6.286308  12085.740  15109.253  15238.613  15383.630    129.359    145.017    100.441
  6.290618  12092.397  15114.842  15244.401  15389.573    129.559    145.172    100.492
  6.294941  12099.080  15120.425  15250.184  15395.512    129.759    145.328    100.544
  6.299278  12105.790  15126.003  15255.963  15401.446    129.959    145.483    100.597
  6.303628  12112.527  15131.576  15261.736  15407.375    130.160    145.639    100.649
  6.307992  12119.292  15137.143  15267.504  15413.300    130.361    145.795    100.702
  6.312369  12126.084  15142.705  15273.268  15419.220    130.563    145.952    100.755
  6.316761  12132.903  15148.261  15279.026  15425.134    130.765    146.109    100.808
  6.321166  12139.751  15153.812  15284.779  15431.044    130.967    146.265    100.861
  6.325585  12146.626  15159.357  15290.527  15436.949    131.170    146.423    100.915
  6.330018  12153.530  15164.896  15296.269  15442.849    131.373    146.580    100.969
  6.334465  12160.461  15170.430  15302.006  15448.744    131.577    146.738    101.023
  6.338927  12167.421  15175.957  15307.738  15454.634    131.781    146.895    101.077
  6.343403  12174.410  15181.479  15313.464  15460.518    131.985    147.053    101.132
  6.347893  12181.427  15186.995  15319.185  15466.397    132.190    147.212    101.187
  6.352398  12188.473  15192.505  15324.900  15472.271    132.396    147.370    101.242
  6.356917  12195.548  15198.009  15330.610  15478.139    132.601    147.529    101.297
  6.361451  12202.652  15203.506  15336.314  15484.002    132.808    147.688    101.353
  6.366000  12209.785  15208.998  15342.012  15489.859    133.014    147.847    101.409
  6.370564  12216.948  15214.483  15347.705  15495.711    133.221    148.007    101.465
  6.375143  12224.141  15219.963  15353.391  15501.557    133.429    148.166    101.521
  6.379737  12231.363  15225.436  15359.072  15507.398    133.636    148.326    101.578
  6.384346  12238.615  15230.902  15364.747  15513.233    133.845    148.486    101.635
  6.388971  12245.897  15236.362  15370.415  15519.062    134.053    148.646    101.692
  6.393611  12253.209  15241.816  15376.078  15524.885    134.262    148.807    101.750
  6.398267  12260.552  15247.263  15381.735  15530.702    134.472    148.967    101.807
  6.402938  12267.925  15252.704  15387.385  15536.513    134.682    149.128    101.866
  6.407625  12275.329  15258.137  15393.029  15542.319    134.892    149.290    101.924
  6.412329  12282.764  15263.565  15398.667  15548.118    135.102    149.451    101.982
  6.417048  12290.230  15268.985  15404.299  15553.911    135.313    149.612    102.041
  6.421783  12297.727  15274.399  15409.924  15559.698    135.525    149.774    102.101
  6.426535  12305.256  15279.806  15415.542  15565.478    135.736    149.936    102.160
  6.431303  12312.816  15285.206  15421.154  15571.252    135.949    150.098    102.220
  6.436087  12320.408  15290.599  15426.760  15577.020    136.161    150.260    102.280
  6.440888  12328.032  15295.984  15432.359  15582.782    136.374    150.423    102.340
  6.445706  12335.688  15301.363  15437.951  15588.536    136.587    150.586    102.401
  6.450540  12343.377  15306.735  15443.536  15594.285    136.801    150.749    102.462
  6.455392  12351.097  15312.099  15449.115  15600.026    137.015    150.912    102.523
  6.460261  12358.851  15317.457  15454.686  15605.761    137.230    151.075    102.585
  6.465147  12366.637  15322.807  15460.251  15611.489    137.444    151.238    102.647
  6.470050  12374.456  15328.149  15465.809  15617.211    137.660    151.402    102.709
  6.474971  12382.309  15333.484  15471.359  15622.925    137.875    151.566    102.771
  6.479909  12390.194  15338.812  15476.903  15628.633    138.091    151.730    102.834
  6.484866  12398.114  15344.132  15482.439  15634.333    138.307    151.894    102.898
  6.489840  12406.067  15349.444  15487.968  15640.027    138.524    152.058    102.961
  6.494832  12414.054  15354.749  15493.490  15645.713    138.741    152.223    103.025
  6.499842  12422.075  15360.046  15499.005  15651.392    138.958    152.388    103.089
  6.504871  12430.131  15365.335  15504.512  15657.064    139.176    152.553    103.154
  6.509918  12438.221  15370.617  15510.011  15662.729    139.394    152.718    103.219
  6.514983  12446.345  15375.890  15515.503  15668.386    139.613    152.883    103.284
  6.520068  12454.505  15381.156  15520.987  15674.035    139.831    153.048    103.349
  6.525171  12462.700  15386.413  15526.464  15679.678    140.051    153.214    103.415
  6.530293  12470.930  15391.663  15531.933  15685.312    140.270    153.379    103.482
  6.535435  12479.195  15396.904  15537.394  15690.939    140.490    153.545    103.548
  6.540595  12487.496  15402.137  15542.847  15696.558    140.710    153.711    103.615
  6.545776  12495.834  15407.362  15548.292  15702.170    140.930    153.877    103.683
  6.550975  12504.207  15412.578  15553.729  15707.773    141.151    154.044    103.750
  6.556195  12512.617  15417.786  15559.159  15713.369    141.372    154.210    103.818
  6.561434  12521.063  15422.986  15564.580  15718.957    141.594    154.377    103.887
  6.566694  12529.546  15428.177  15569.993  15724.536    141.815    154.544    103.956
  6.571974  12538.066  15433.360  15575.397  15730.108    142.037    154.710    104.025
  6.577274  12546.623  15438.534  15580.794  15735.671    142.260    154.877    104.095
  6.582595  12555.217  15443.699  15586.181  15741.226    142.482    155.044    104.165
  6.587937  12563.849  15448.856  15591.561  15746.773    142.705    155.212    104.235
  6.593299  12572.519  15454.003  15596.932  15752.311    142.929    155.379    104.306
  6.598683  12581.227  15459.142  15602.294  15757.841    143.152    155.547    104.377
  6.604087  12589.973  15464.272  15607.648  15763.362    143.376    155.714    104.449
  6.609514  12598.758  15469.393  15612.993  15768.875    143.600    155.882    104.521
  6.614962  12607.581  15474.504  15618.329  15774.379    143.825    156.050    104.594
  6.620431  12616.444  15479.607  15623.657  15779.874    144.050    156.218    104.667
  6.625923  12625.345  15484.701  15628.975  15785.361    144.275    156.386    104.740
  6.631436  12634.286  15489.785  15634.285  15790.839    144.500    156.554    104.814
  6.636972  12643.267  15494.860  15639.585  15796.307    144.726    156.722    104.888
  6.642531  12652.287  15499.925  15644.876  15801.767    144.951    156.891    104.963
  6.648112  12661.347  15504.981  15650.159  15807.218    145.178    157.059    105.038
  6.653716  12670.448  15510.028  15655.432  15812.659    145.404    157.228    105.113
  6.659343  12679.590  15515.065  15660.695  15818.092    145.631    157.396    105.190
  6.664994  12688.772  15520.092  15665.949  15823.515    145.857    157.565    105.266
  6.670668  12697.995  15525.110  15671.194  15828.928    146.085    157.734    105.343
  6.676365  12707.260  15530.118  15676.429  15834.332    146.312    157.903    105.421
  6.682087  12716.566  15535.116  15681.655  15839.727    146.540    158.072    105.499
  6.687833  12725.914  15540.104  15686.871  15845.112    146.767    158.241    105.577
  6.693602  12735.305  15545.082  15692.077  15850.487    146.996    158.410    105.656
  6.699397  12744.737  15550.050  15697.274  15855.853    147.224    158.579    105.735
  6.705216  12754.212  15555.008  15702.461  15861.209    147.452    158.748    105.815
  6.711060  12763.730  15559.956  15707.637  15866.555    147.681    158.918    105.896
  6.716929  12773.291  15564.894  15712.804  15871.891    147.910    159.087    105.977
  6.722823  12782.895  15569.821  15717.961  15877.217    148.139    159.256    106.058
  6.728744  12792.543  15574.738  15723.107  15882.533    148.369    159.426    106.140
  6.734689  12802.235  15579.645  15728.243  15887.839    148.598    159.595    106.223
  6.740661  12811.971  15584.541  15733.369  15893.134    148.828    159.765    106.306
  6.746660  12821.751  15589.427  15738.485  15898.419    149.058    159.934    106.390
  6.752684  12831.576  15594.302  15743.590  15903.694    149.288    160.104    106.474
  6.758736  12841.446  15599.167  15748.685  15908.958    149.518    160.273    106.559
  6.764815  12851.361  15604.020  15753.769  15914.212    149.749    160.443    106.644
  6.770920  12861.322  15608.863  15758.843  15919.455    149.980    160.613    106.730
  6.777054  12871.329  15613.695  15763.906  15924.688    150.210    160.782    106.816
  6.783215  12881.382  15618.516  15768.958  15929.910    150.441    160.952    106.904
  6.789404  12891.481  15623.326  15773.999  15935.120    150.672    161.122    106.991
  6.795621  12901.626  15628.125  15779.029  15940.320    150.904    161.291    107.080
  6.801867  12911.819  15632.913  15784.048  15945.509    151.135    161.461    107.168
  6.808141  12922.059  15637.690  15789.057  15950.687    151.367    161.630    107.258
  6.814445  12932.346  15642.456  15794.054  15955.854    151.598    161.800    107.348
  6.820778  12942.682  15647.210  15799.040  15961.009    151.830    161.970    107.439
  6.827141  12953.065  15651.952  15804.014  15966.153    152.062    162.139    107.530
  6.833533  12963.497  15656.684  15808.977  15971.286    152.294    162.309    107.622
  6.839956  12973.977  15661.403  15813.929  15976.407    152.526    162.478    107.715
  6.846409  12984.507  15666.111  15818.870  15981.517    152.758    162.648    107.809
  6.852893  12995.086  15670.808  15823.798  15986.615    152.990    162.817    107.903
  6.859408  13005.715  15675.493  15828.715  15991.702    153.223    162.986    107.998
  6.865954  13016.393  15680.166  15833.621  15996.776    153.455    163.156    108.093
  6.872532  13027.122  15684.827  15838.514  16001.839    153.688    163.325    108.189
  6.879142  13037.902  15689.476  15843.396  16006.890    153.920    163.494    108.286
  6.885784  13048.732  15694.113  15848.266  16011.929    154.153    163.663    108.384
  6.892459  13059.614  15698.738  15853.123  16016.956    154.385    163.832    108.482
  6.899167  13070.547  15703.351  15857.969  16021.970    154.618    164.001    108.581
  6.905908  13081.532  15707.952  15862.803  16026.973    154.851    164.170    108.681
  6.912682  13092.570  15712.540  15867.624  16031.963    155.083    164.339    108.782
  6.919491  13103.660  15717.117  15872.433  16036.940    155.316    164.507    108.883
  6.926334  13114.803  15721.680  15877.229  16041.905    155.549    164.676    108.985
  6.933211  13125.999  15726.232  15882.013  16046.858    155.781    164.844    109.088
  6.940123  13137.249  15730.771  15886.785  16051.798    156.014    165.013    109.192
  6.947071  13148.553  15735.297  15891.544  16056.725    156.247    165.181    109.297
  6.954054  13159.911  15739.810  15896.290  16061.639    156.480    165.349    109.402
  6.961074  13171.324  15744.311  15901.023  16066.540    156.712    165.517    109.508
  6.968129  13182.792  15748.799  15905.744  16071.429    156.945    165.685    109.615
  6.975222  13194.315  15753.274  15910.452  16076.304    157.177    165.852    109.723
  6.982352  13205.894  15757.736  15915.146  16081.166    157.410    166.020    109.832
  6.989519  13217.528  15762.186  15919.828  16086.015    157.642    166.187    109.942
  6.996724  13229.220  15766.622  15924.496  16090.851    157.874    166.354    110.053
  7.003968  13240.968  15771.045  15929.151  16095.673    158.107    166.521    110.164
  7.011251  13252.773  15775.455  15933.793  16100.482    158.339    166.688    110.277
  7.018572  13264.636  15779.851  15938.422  16105.277    158.571    166.855    110.390
  7.025934  13276.557  15784.234  15943.037  16110.058    158.803    167.021    110.504
  7.033335  13288.536  15788.604  15947.639  16114.826    159.035    167.187    110.620
  7.040777  13300.574  15792.960  15952.227  16119.580    159.266    167.353    110.736
  7.048260  13312.671  15797.303  15956.801  16124.320    159.498    167.519    110.853
  7.055784  13324.827  15801.632  15961.361  16129.046    159.729    167.685    110.972
  7.063350  13337.044  15805.948  15965.908  16133.758    159.960    167.850    111.091
  7.070958  13349.320  15810.249  15970.441  16138.456    160.191    168.015    111.212
  7.078609  13361.657  15814.537  15974.959  16143.140    160.422    168.180    111.333
  7.086303  13374.056  15818.811  15979.464  16147.809    160.653    168.345    111.456
  7.094042  13386.515  15823.071  15983.955  16152.464    160.883    168.509    111.579
  7.101824  13399.037  15827.317  15988.431  16157.104    161.114    168.673    111.704
  7.109651  13411.621  15831.549  15992.893  16161.730    161.344    168.837    111.830
  7.117523  13424.267  15835.767  15997.341  16166.341    161.573    169.001    111.957
  7.125441  13436.976  15839.971  16001.774  16170.938    161.803    169.164    112.085
  7.133405  13449.750  15844.160  16006.192  16175.519    162.032    169.327    112.214
  7.141417  13462.586  15848.335  16010.596  16180.086    162.261    169.490    112.344
  7.149475  13475.488  15852.496  16014.986  16184.638    162.490    169.652    112.476
  7.157582  13488.454  15856.642  16019.360  16189.174    162.718    169.814    112.609
  7.165737  13501.485  15860.774  16023.720  16193.696    162.946    169.976    112.743
  7.173941  13514.582  15864.891  16028.065  16198.202    163.174    170.137    112.879
  7.182194  13527.745  15868.993  16032.395  16202.692    163.402    170.298    113.015
  7.190498  13540.974  15873.081  16036.709  16207.168    163.629    170.459    113.153
  7.198853  13554.271  15877.153  16041.009  16211.628    163.855    170.619    113.293
  7.207260  13567.634  15881.211  16045.293  16216.072    164.082    170.779    113.433
  7.215718  13581.066  15885.254  16049.562  16220.500    164.308    170.938    113.575
  7.224229  13594.566  15889.282  16053.816  16224.913    164.534    171.097    113.719
  7.232794  13608.134  15893.295  16058.054  16229.310    164.759    171.256    113.864
  7.241413  13621.772  15897.293  16062.276  16233.691    164.984    171.414    114.010
  7.250086  13635.479  15901.275  16066.483  16238.055    165.208    171.572    114.158
  7.258815  13649.257  15905.242  16070.674  16242.404    165.432    171.730    114.307
  7.267600  13663.105  15909.194  16074.850  16246.737    165.655    171.887    114.458
  7.276442  13677.024  15913.131  16079.009  16251.053    165.878    172.044    114.610
  7.285341  13691.014  15917.052  16083.153  16255.352    166.101    172.200    114.764
  7.294298  13705.077  15920.957  16087.280  16259.636    166.323    172.355    114.919
  7.303315  13719.211  15924.847  16091.392  16263.902    166.544    172.511    115.076
  7.312392  13733.419  15928.722  16095.487  16268.152    166.765    172.665    115.235
  7.321529  13747.700  15932.580  16099.566  16272.386    166.986    172.820    115.395
  7.330727  13762.055  15936.423  16103.629  16276.602    167.206    172.973    115.557
  7.339988  13776.484  15940.250  16107.675  16280.801    167.425    173.127    115.721
  7.349312  13790.988  15944.061  16111.705  16284.984    167.644    173.279    115.886
  7.358699  13805.567  15947.856  16115.718  16289.149    167.862    173.431    116.054
  7.368152  13820.222  15951.635  16119.714  16293.297    168.079    173.583    116.223
  7.377670  13834.953  15955.398  16123.694  16297.428    168.296    173.734    116.393
  7.387254  13849.760  15959.145  16127.657  16301.542    168.512    173.885    116.566
  7.396906  13864.645  15962.875  16131.603  16305.638    168.728    174.035    116.741
  7.406626  13879.608  15966.589  16135.532  16309.716    168.943    174.184    116.917
  7.416416  13894.649  15970.287  16139.444  16313.777    169.157    174.333    117.096
  7.426276  13909.768  15973.969  16143.339  16317.820    169.371    174.481    117.277
  7.436207  13924.967  15977.634  16147.217  16321.845    169.583    174.628    117.459
  7.446210  13940.245  15981.282  16151.077  16325.853    169.795    174.775    117.644
  7.456287  13955.603  15984.914  16154.921  16329.842    170.007    174.922    117.831
  7.466438  13971.042  15988.529  16158.746  16333.813    170.217    175.067    118.019
  7.476664  13986.562  15992.128  16162.554  16337.767    170.427    175.212    118.211
  7.486967  14002.163  15995.709  16166.345  16341.701    170.636    175.357    118.404
  7.497348  14017.847  15999.274  16170.118  16345.618    170.844    175.500    118.599
  7.507807  14033.612  16002.822  16173.873  16349.516    171.051    175.643    118.797
  7.518346  14049.461  16006.353  16177.610  16353.395    171.257    175.785    118.998
  7.528967  14065.394  16009.867  16181.330  16357.256    171.463    175.927    119.200
  7.539669  14081.410  16013.364  16185.031  16361.099    171.667    176.067    119.405
  7.550456  14097.511  16016.844  16188.715  16364.922    171.871    176.207    119.613
  7.561327  14113.697  16020.306  16192.380  16368.727    172.074    176.347    119.823
  7.572284  14129.968  16023.751  16196.027  16372.512    172.275    176.485    120.035
  7.583329  14146.325  16027.179  16199.656  16376.279    172.476    176.623    120.251
  7.594463  14162.768  16030.590  16203.266  16380.026    172.676    176.760    120.469
  7.605687  14179.298  16033.983  16206.858  16383.754    172.875    176.896    120.689
  7.617003  14195.916  16037.359  16210.432  16387.463    173.073    177.031    120.913
  7.628412  14212.621  16040.717  16213.986  16391.152    173.269    177.166    121.139
  7.639916  14229.414  16044.058  16217.523  16394.822    173.465    177.299    121.368
  7.651515  14246.295  16047.381  16221.040  16398.472    173.660    177.432    121.600
  7.663213  14263.266  16050.686  16224.539  16402.103    173.853    177.564    121.835
  7.675010  14280.326  16053.973  16228.019  16405.714    174.045    177.695    122.073
  7.686908  14297.475  16057.243  16231.480  16409.305    174.237    177.825    122.314
  7.698908  14314.715  16060.495  16234.921  16412.876    174.427    177.955    122.558
  7.711013  14332.045  16063.728  16238.344  16416.427    174.616    178.083    122.805
  7.723224  14349.467  16066.944  16241.748  16419.958    174.803    178.210    123.056
  7.735543  14366.979  16070.142  16245.132  16423.469    174.990    178.337    123.310
  7.747971  14384.584  16073.322  16248.497  16426.959    175.175    178.462    123.568
  7.760512  14402.280  16076.483  16251.842  16430.429    175.359    178.587    123.828
  7.773166  14420.069  16079.627  16255.168  16433.879    175.542    178.710    124.093
  7.785935  14437.950  16082.752  16258.475  16437.308    175.723    178.833    124.361
  7.798822  14455.925  16085.859  16261.762  16440.717    175.903    178.955    124.632
  7.811829  14473.992  16088.947  16265.029  16444.104    176.082    179.075    124.908
  7.824958  14492.153  16092.018  16268.277  16447.471    176.259    179.195    125.187
  7.838211  14510.408  16095.069  16271.504  16450.818    176.435    179.313    125.470
  7.851591  14528.757  16098.103  16274.712  16454.143    176.609    179.431    125.757
  7.865099  14547.200  16101.117  16277.900  16457.447    176.783    179.547    126.048
  7.878739  14565.738  16104.113  16281.068  16460.730    176.954    179.663    126.343
  7.892512  14584.370  16107.091  16284.215  16463.992    177.124    179.777    126.643
  7.906421  14603.096  16110.050  16287.343  16467.233    177.293    179.890    126.946
  7.920468  14621.918  16112.990  16290.450  16470.452    177.460    180.002    127.255
  7.934658  14640.834  16115.911  16293.537  16473.650    177.626    180.113    127.567
  7.948991  14659.845  16118.814  16296.604  16476.826    177.790    180.223    127.884
  7.963471  14678.951  16121.697  16299.650  16479.981    177.953    180.331    128.206
  7.978101  14698.152  16124.562  16302.676  16483.114    178.114    180.438    128.532
  7.992884  14717.447  16127.408  16305.681  16486.225    178.273    180.545    128.863
  8.007823  14736.838  16130.235  16308.665  16489.315    178.431    180.650    129.199
  8.022921  14756.323  16133.042  16311.629  16492.383    178.587    180.754    129.540
  8.038181  14775.902  16135.831  16314.572  16495.428    178.741    180.856    129.886
  8.053608  14795.575  16138.600  16317.494  16498.452    178.894    180.958    130.238
  8.069203  14815.342  16141.351  16320.396  16501.453    179.045    181.058    130.594
  8.084971  14835.203  16144.082  16323.276  16504.433    179.194    181.157    130.956
  8.100915  14855.157  16146.794  16326.136  16507.390    179.342    181.254    131.324
  8.117040  14875.203  16149.487  16328.974  16510.325    179.487    181.351    131.697
  8.133349  14895.342  16152.160  16331.791  16513.237    179.631    181.446    132.076
  8.149846  14915.572  16154.814  16334.587  16516.127    179.773    181.539    132.461
  8.166536  14935.893  16157.449  16337.362  16518.994    179.913    181.632    132.852
  8.183422  14956.304  16160.064  16340.116  16521.839    180.052    181.723    133.248
  8.200509  14976.805  16162.660  16342.848  16524.661    180.188    181.813    133.651
  8.217802  14997.395  16165.236  16345.559  16527.460    180.323    181.901    134.061
  8.235306  15018.072  16167.793  16348.248  16530.237    180.456    181.988    134.476
  8.253025  15038.836  16170.330  16350.916  16532.990    180.586    182.074    134.899
  8.270964  15059.685  16172.847  16353.563  16535.721    180.715    182.159    135.327
  8.289129  15080.618  16175.345  16356.187  16538.429    180.842    182.241    135.763
  8.307526  15101.635  16177.824  16358.790  16541.114    180.967    182.323    136.206
  8.326159  15122.733  16180.282  16361.372  16543.775    181.090    182.403    136.655
  8.345035  15143.911  16182.721  16363.932  16546.414    181.210    182.482    137.112
  8.364160  15165.168  16185.140  16366.470  16549.029    181.329    182.559    137.576
  8.383540  15186.501  16187.540  16368.986  16551.621    181.446    182.635    138.048
  8.403181  15207.909  16189.919  16371.480  16554.190    181.561    182.710    138.527
  8.423091  15229.389  16192.279  16373.952  16556.735    181.673    182.783    139.014
  8.443276  15250.940  16194.619  16376.403  16559.257    181.784    182.855    139.508
  8.463743  15272.559  16196.939  16378.831  16561.756    181.892    182.925    140.011
  8.484501  15294.243  16199.239  16381.237  16564.231    181.998    182.993    140.521
  8.505557  15315.990  16201.519  16383.622  16566.682    182.102    183.061    141.040
  8.526919  15337.798  16203.779  16385.984  16569.110    182.204    183.127    141.567
  8.548596  15359.662  16206.020  16388.324  16571.515    182.304    183.191    142.103
  8.570597  15381.580  16208.240  16390.642  16573.895    182.402    183.254    142.647
  8.592930  15403.549  16210.440  16392.938  16576.253    182.497    183.315    143.200
  8.615606  15425.564  16212.620  16395.211  16578.586    182.591    183.375    143.762
  8.638635  15447.622  16214.781  16397.462  16580.896    182.682    183.433    144.332
  8.662027  15469.719  16216.921  16399.691  16583.182    182.771    183.490    144.912
  8.685792  15491.850  16219.041  16401.898  16585.444    182.857    183.546    145.501
  8.709943  15514.012  16221.141  16404.083  16587.682    182.942    183.599    146.099
  8.734491  15536.198  16223.221  16406.245  16589.897    183.024    183.652    146.706
  8.759450  15558.404  16225.280  16408.385  16592.087    183.104    183.703    147.323
  8.784830  15580.624  16227.320  16410.502  16594.254    183.182    183.752    147.949
  8.810648  15602.854  16229.340  16412.597  16596.397    183.258    183.800    148.585
  8.836916  15625.086  16231.339  16414.670  16598.517    183.331    183.847    149.231
  8.863651  15647.314  16233.318  16416.720  16600.612    183.402    183.892    149.886
  8.890866  15669.532  16235.277  16418.748  16602.683    183.471    183.935    150.551
  8.918581  15691.732  16237.216  16420.754  16604.731    183.538    183.977    151.225
  8.946810  15713.907  16239.135  16422.737  16606.755    183.602    184.018    151.910
  8.975574  15736.050  16241.033  16424.698  16608.755    183.665    184.057    152.604
  9.004891  15758.151  16242.911  16426.636  16610.731    183.725    184.095    153.307
  9.034781  15780.203  16244.769  16428.552  16612.684    183.783    184.131    154.020
  9.065266  15802.195  16246.607  16430.446  16614.612    183.839    184.166    154.743
  9.096369  15824.120  16248.425  16432.317  16616.517    183.892    184.200    155.475
  9.128113  15845.965  16250.222  16434.166  16618.398    183.944    184.232    156.216
  9.160524  15867.722  16252.000  16435.993  16620.256    183.993    184.263    156.966
  9.193627  15889.379  16253.757  16437.798  16622.090    184.041    184.292    157.726
  9.227453  15910.924  16255.494  16439.580  16623.900    184.086    184.320    158.493
  9.262029  15932.345  16257.210  16441.340  16625.687    184.129    184.347    159.269
  9.297389  15953.630  16258.907  16443.078  16627.450    184.170    184.373    160.053
  9.333566  15974.765  16260.583  16444.793  16629.190    184.210    184.397    160.844
  9.370597  15995.737  16262.240  16446.487  16630.906    184.247    184.420    161.642
  9.408518  16016.532  16263.876  16448.158  16632.599    184.282    184.441    162.447
  9.447373  16037.134  16265.492  16449.807  16634.269    184.316    184.462    163.257
  9.487203  16057.528  16267.087  16451.435  16635.916    184.347    184.481    164.073
  9.528057  16077.698  16268.663  16453.040  16637.539    184.377    184.499    164.894
  9.569983  16097.627  16270.219  16454.623  16639.140    184.405    184.516    165.718
  9.613037  16117.298  16271.754  16456.185  16640.717    184.431    184.532    166.545
  9.657275  16136.693  16273.270  16457.725  16642.272    184.455    184.547    167.374
  9.702761  16155.793  16274.765  16459.243  16643.804    184.478    184.561    168.203
  9.749561  16174.579  16276.240  16460.740  16645.313    184.499    184.573    169.032
  9.797747  16193.032  16277.695  16462.214  16646.800    184.519    184.585    169.860
  9.847398  16211.132  16279.130  16463.668  16648.264    184.537    184.596    170.684
  9.898600  16228.857  16280.546  16465.100  16649.706    184.554    184.606    171.503
  9.951445  16246.187  16281.941  16466.510  16651.125    184.569    184.615    172.317
 10.006034  16263.101  16283.316  16467.899  16652.523    184.583    184.624    173.122
 10.062476  16279.576  16284.671  16469.267  16653.898    184.596    184.631    173.917
 10.120893  16295.591  16286.007  16470.614  16655.252    184.607    184.638    174.700
 10.181417  16311.124  16287.322  16471.939  16656.583    184.618    184.644    175.470
 10.244194  16326.152  16288.617  16473.244  16657.894    184.627    184.649    176.222
 10.309383  16340.654  16289.893  16474.528  16659.182    184.635    184.654    176.957
 10.377165  16354.607  16291.148  16475.791  16660.449    184.642    184.658    177.670
 10.447735  16367.992  16292.384  16477.033  16661.695    184.649    184.662    178.359
 10.521316  16380.786  16293.600  16478.254  16662.919    184.654    184.665    179.022
 10.598154  16392.971  16294.796  16479.455  16664.123    184.659    184.668    179.657
 10.678527  16404.528  16295.971  16480.635  16665.305    184.663    184.671    180.260
 10.762749  16415.440  16297.127  16481.794  16666.466    184.667    184.672    180.830
 10.851177  16425.692  16298.263  16482.933  16667.607    184.670    184.674    181.364
 10.944216  16435.270  16299.379  16484.051  16668.727    184.672    184.676    181.859
 11.042332  16444.164  16300.475  16485.149  16669.825    184.674    184.677    182.314
 11.146064  16452.367  16301.550  16486.226  16670.903    184.675    184.677    182.727
 11.256037  16459.874  16302.606  16487.282  16671.961    184.677    184.678    183.098
 11.372983  16466.684  16303.640  16488.318  16672.997    184.678    184.679    183.424
 11.497766  16472.803  16304.655  16489.333  16674.012    184.678    184.679    183.708
 11.631417  16478.240  16305.648  16490.327  16675.006    184.679    184.679    183.948
 11.775175  16483.008  16306.620  16491.299  16675.979    184.679    184.680    184.147
 11.930549  16487.129  16307.570  16492.250  16676.929    184.680    184.680    184.307
 12.099402  16490.629  16308.498  16493.178  16677.858    184.680    184.680    184.431
 12.284065  16493.543  16309.403  16494.083  16678.763    184.680    184.680    184.523
 12.487506  16495.909  16310.285  16494.965  16679.645    184.680    184.680    184.588
 12.713583  16497.777  16311.141  16495.821  16680.501    184.680    184.680    184.630
 12.967428  16499.199  16311.971  16496.651  16681.331    184.680    184.680    184.656
 13.256065  16500.235  16312.773  16497.453  16682.133    184.680    184.680    184.670
 13.589446  16500.948  16313.542  16498.222  16682.902    184.680    184.680    184.677
 13.982299  16501.404  16314.276  16498.956  16683.636    184.680    184.680    184.679
 14.457679  16501.667  16314.968  16499.648  16684.328    184.680    184.680    184.680
 15.054496  16501.799  16315.609  16500.289  16684.969    184.680    184.680    184.680
 15.845875  16501.853  16316.185  16500.865  16685.545    184.680    184.680    184.680
 16.994178  16501.868  16316.672  16501.352  16686.032    184.680    184.680    184.680
 18.988070  16501.870  16317.030  16501.710  16686.390    184.680    184.680    184.680
 25.400000  16501.870  16317.187  16501.867  16686.547    184.680    184.680    184.680
======================================================================================== 